1622029712.00
64.000000
-0.00
-0.00
-0.00
-0.00
-0.00
-0.00
-0.00
-0.00
-0.00
-0.00
0.00
0.01
0.01
-0.00
-0.03
-0.05
-0.05
0.00
0.13
0.36
0.66
1.01
1.37
1.72
2.06
2.40
2.79
3.24
3.80
4.43
5.09
5.73
6.33
6.89
7.49
8.20
9.07
10.20
11.52
12.90
14.25
15.49
16.69
17.99
19.62
21.71
24.50
27.78
31.31
34.80
38.08
41.24
44.59
48.55
53.42
59.58
66.69
74.26
81.76
88.88
95.74
102.82
110.85
120.34
131.83
144.84
158.62
172.35
185.52
198.22
211.07
225.40
239.88
256.76
276.68
299.80
325.03
349.57
369.10
378.95
375.63
358.12
328.72
291.32
250.39
209.38
170.01
132.57
96.72
62.36
29.79
-0.23
-27.50
-52.17
-74.66
-95.38
-114.56
-132.28
-148.56
-163.64
-177.81
-191.47
-204.99
-218.62
-232.38
-246.14
-259.67
-272.82
-285.74
-298.88
-313.18
-329.58
-348.26
-368.04
-386.12
-398.68
-402.11
-394.43
-376.01
-349.48
-318.60
-286.88
-256.60
-228.70
-203.18
-179.86
-158.73
-139.92
-123.40
-108.79
-95.46
-82.82
-70.69
-59.27
-49.10
-40.67
-34.18
-29.30
-25.36
-21.50
-17.05
-11.71
-5.67
0.47
6.02
10.44
13.58
15.67
17.17
18.53
19.98
21.42
22.60
23.25
23.31
22.96
22.55
22.37
22.51
22.83
23.00
22.76
22.04
21.02
20.05
19.38
19.07
18.88
18.48
17.59
16.17
14.51
12.99
12.00
11.74
12.27
13.59
15.71
18.60
22.10
25.74
28.90
30.92
31.39
30.36
28.23
25.64
23.14
21.10
19.65
18.83
18.64
19.10
20.15
21.58
22.95
23.79
23.64
22.27
19.72
16.28
12.36
8.41
4.82
1.88
-0.22
-1.46
-2.08
-2.56
-3.73
-6.46
-11.45
-18.85
-28.06
-37.79
-46.45
-52.65
-55.76
-56.13
-55.09
-54.37
-55.46
-58.98
-64.48
-70.46
-74.88
-75.66
-71.25
-61.05
-45.75
-27.28
-8.54
7.46
18.48
23.72
24.00
21.22
17.50
14.32
12.19
10.89
10.12
9.89
10.63
12.73
16.18
20.32
24.17
26.93
28.42
29.16
29.95
31.34
33.32
35.23
36.25
35.78
33.84
30.98
27.98
25.48
23.78
22.90
22.68
22.96
23.59
24.40
25.16
25.62
25.60
25.10
24.26
23.33
22.61
22.34
22.69
23.76
25.53
27.75
29.93
31.44
31.70
30.42
27.73
24.18
20.52
17.46
15.44
14.56
14.60
15.15
15.74
16.03
15.92
15.64
15.63
16.38
18.10
20.55
22.98
24.39
23.84
20.79
15.21
7.56
-1.43
-10.91
-20.17
-28.55
-35.48
-40.40
-42.83
-42.50
-39.55
-34.60
-28.62
-22.75
-17.89
-14.51
-12.59
-11.78
-11.63
-11.81
-12.13
-12.49
-12.77
-12.76
-12.25
-11.13
-9.47
-7.45
-5.32
-3.30
-1.46
0.19
1.73
3.19
4.56
5.75
6.65
7.18
7.39
7.44
7.52
7.81
8.32
8.94
9.39
9.40
8.80
7.63
6.15
4.78
3.98
4.03
5.00
6.64
8.53
10.17
11.22
11.59
11.38
10.85
10.14
9.24
8.03
6.36
4.23
1.83
-0.49
-2.39
-3.63
-4.26
-4.55
-5.00
-6.16
-8.44
-11.93
-16.27
-20.79
-24.67
-27.29
-28.49
-28.53
-28.03
-27.59
-27.55
-27.84
-28.05
-27.55
-25.78
-22.45
-17.59
-11.67
-5.41
0.34
4.88
7.84
9.32
9.81
10.01
10.62
12.04
14.38
17.39
20.62
23.58
25.90
27.35
27.92
27.73
26.97
25.89
24.69
23.52
22.49
21.63
20.83
19.94
18.77
17.18
15.21
13.04
10.95
9.23
8.05
7.44
7.21
7.16
7.03
6.72
6.23
5.71
5.39
5.48
6.02
6.93
7.94
8.72
9.04
8.86
8.31
7.65
7.07
6.66
6.33
5.84
5.00
3.74
2.17
0.54
-0.86
-1.79
-2.14
-1.91
-1.21
-0.18
0.99
2.15
3.13
3.82
4.17
4.23
4.11
3.93
3.78
3.64
3.45
3.07
2.45
1.56
0.47
-0.71
-1.84
-2.85
-3.73
-4.61
-5.65
-6.99
-8.58
-10.22
-11.62
-12.51
-12.77
-12.47
-11.77
-10.83
-9.73
-8.47
-7.06
-5.55
-4.08
-2.84
-1.94
-1.44
-1.24
-1.25
-1.40
-1.73
-2.38
-3.52
-5.15
-7.14
-9.11
-10.70
-11.70
-12.18
-12.48
-13.06
-14.20
-15.94
-18.02
-20.05
-21.79
-23.25
-24.74
-26.72
-29.50
-33.12
-37.22
-41.10
-43.99
-45.25
-44.62
-42.28
-38.77
-34.77
-30.92
-27.62
-24.92
-22.60
-20.23
-17.38
-13.81
-9.65
-5.46
-2.20
-1.08
-3.14
-8.77
-17.15
-26.13
-32.64
-33.71
-27.69
-15.16
1.04
16.81
28.26
33.14
31.45
25.01
16.36
7.58
-0.28
-7.09
-13.10
-18.47
-23.12
-26.77
-28.89
-28.43
-23.63
-12.34
7.01
34.23
66.68
99.59
127.47
145.83
152.48
147.76
133.90
113.94
90.96
67.73
46.65
29.73
18.18
12.15
10.60
11.66
13.19
13.45
11.44
7.02
0.83
-6.01
-12.26
-16.91
-19.56
-20.38
-20.06
-19.38
-18.94
-18.89
-18.97
-18.76
-17.91
-16.32
-14.22
-12.03
-10.19
-8.97
-8.34
-8.07
-7.83
-7.35
-6.57
-5.61
-4.69
-4.02
-3.69
-3.64
-3.71
-3.72
-3.58
-3.26
-2.85
-2.47
-2.19
-2.05
-2.02
-1.99
-1.86
-1.57
-1.09
-0.48
0.22
0.94
1.64
2.34
3.03
3.70
4.28
4.67
4.77
4.55
4.12
3.66
3.39
3.43
3.73
4.09
4.25
4.06
3.56
3.02
2.78
3.06
3.81
4.71
5.35
5.41
4.86
3.95
3.08
2.56
2.51
2.80
3.18
3.45
3.57
3.64
3.85
4.36
5.20
6.32
7.62
8.99
10.40
11.83
13.30
14.84
16.47
18.21
20.12
22.25
24.63
27.31
30.28
33.49
36.87
40.25
43.44
46.20
48.24
49.32
49.17
47.54
44.16
38.85
31.59
22.62
12.54
2.16
-7.63
-16.10
-22.80
-27.64
-30.73
-32.31
-32.62
-31.93
-30.55
-28.86
-27.21
-25.87
-24.89
-24.13
-23.41
-22.56
-21.55
-20.49
-19.53
-18.82
-18.41
-18.22
-18.15
-18.08
-17.91
-17.59
-17.08
-16.40
-15.59
-14.67
-13.66
-12.57
-11.44
-10.34
-9.40
-8.77
-8.57
-8.79
-9.28
-9.79
-10.06
-9.89
-9.23
-8.20
-6.98
-5.76
-4.68
-3.82
-3.20
-2.85
-2.78
-2.96
-3.30
-3.66
-3.91
-4.00
-3.98
-4.07
-4.47
-5.29
-6.44
-7.70
-8.77
-9.49
-9.88
-10.13
-10.50
-11.15
-12.06
-12.96
-13.56
-13.62
-13.14
-12.34
-11.58
-11.17
-11.26
-11.77
-12.46
-13.14
-13.66
-13.99
-14.10
-13.90
-13.23
-12.07
-10.57
-9.11
-8.03
-7.40
-6.83
-5.68
-3.39
0.14
4.38
8.45
11.51
13.17
13.54
13.09
12.25
11.19
9.78
7.79
5.09
1.78
-1.86
-5.51
-8.94
-12.04
-14.82
-17.29
-19.40
-21.06
-22.20
-22.84
-23.14
-23.40
-23.95
-25.04
-26.69
-28.70
-30.68
-32.19
-32.85
-32.46
-30.97
-28.52
-25.38
-21.78
-17.83
-13.38
-8.04
-1.27
7.35
17.84
29.75
42.10
53.68
63.24
69.89
73.19
73.23
70.50
65.76
59.86
53.62
47.72
42.66
38.73
36.00
34.33
33.44
32.95
32.51
31.95
31.23
30.46
29.74
29.08
28.33
27.17
25.25
22.23
17.96
12.58
6.50
0.31
-5.37
-10.12
-13.78
-16.52
-18.66
-20.52
-22.28
-23.84
-24.94
-25.30
-24.80
-23.57
-22.02
-20.60
-19.66
-19.23
-19.05
-18.66
-17.64
-15.79
-13.17
-10.07
-6.83
-3.70
-0.86
1.62
3.59
4.90
5.44
5.24
4.60
3.96
3.82
4.44
5.76
7.40
8.87
9.75
9.91
9.48
8.70
7.78
6.84
5.87
4.88
3.91
2.93
1.87
0.49
-1.47
-4.12
-7.24
-10.33
-12.75
-14.04
-14.12
-13.29
-12.07
-10.93
-10.08
-9.48
-8.95
-8.29
-7.45
-6.49
-5.52
-4.62
-3.78
-3.00
-2.28
-1.72
-1.43
-1.51
-1.91
-2.45
-2.89
-2.99
-2.68
-2.08
-1.39
-0.87
-0.65
-0.79
-1.23
-1.87
-2.57
-3.20
-3.63
-3.75
-3.55
-3.11
-2.57
-2.07
-1.67
-1.33
-0.97
-0.52
-0.04
0.39
0.65
0.73
0.68
0.62
0.61
0.63
0.57
0.33
-0.08
-0.58
-1.00
-1.21
-1.18
-0.98
-0.72
-0.51
-0.41
-0.38
-0.39
-0.42
-0.46
-0.50
-0.52
-0.47
-0.27
0.10
0.63
1.28
1.95
2.57
3.08
3.43
3.65
3.80
3.96
4.19
4.43
4.55
4.36
3.78
2.93
2.07
1.51
1.43
1.79
2.33
2.75
2.88
2.77
2.67
2.89
3.64
4.93
6.55
8.21
9.66
10.79
11.62
12.32
13.09
14.20
15.93
18.58
22.16
26.19
29.49
30.46
27.55
20.07
8.63
-4.93
-18.18
-29.00
-36.23
-39.87
-40.62
-39.30
-36.41
-32.08
-26.44
-19.89
-13.21
-7.36
-3.15
-0.99
-0.92
-2.67
-5.84
-9.97
-14.56
-19.03
-22.86
-25.62
-27.17
-27.64
-27.36
-26.68
-25.91
-25.15
-24.40
-23.56
-22.53
-21.20
-19.53
-17.49
-15.05
-12.24
-9.17
-6.05
-3.30
-1.40
-0.75
-1.51
-3.44
-6.02
-8.61
-10.78
-12.44
-13.74
-14.90
-15.86
-16.26
-15.57
-13.37
-9.62
-4.71
0.65
5.76
10.12
13.48
15.86
17.35
18.06
18.17
18.00
18.02
18.71
20.33
22.78
25.55
27.94
29.33
29.38
28.05
25.56
22.19
18.22
14.02
10.09
7.12
5.88
6.96
10.53
16.21
23.07
29.92
35.47
38.64
38.81
35.88
30.34
23.11
15.32
8.06
2.12
-2.16
-4.76
-5.96
-6.06
-5.36
-4.11
-2.63
-1.34
-0.65
-0.84
-1.90
-3.50
-5.12
-6.26
-6.65
-6.32
-5.58
-4.78
-4.22
-4.01
-4.09
-4.29
-4.45
-4.46
-4.29
-3.99
-3.66
-3.32
-2.96
-2.54
-2.03
-1.50
-1.06
-0.86
-0.97
-1.34
-1.80
-2.15
-2.23
-2.00
-1.53
-0.95
-0.39
0.07
0.38
0.54
0.54
0.40
0.12
-0.23
-0.58
-0.83
-0.96
-0.96
-0.93
-0.94
-1.03
-1.21
-1.41
-1.59
-1.73
-1.80
-1.79
-1.67
-1.39
-0.97
-0.45
0.02
0.32
0.36
0.17
-0.14
-0.41
-0.47
-0.28
0.08
0.47
0.69
0.64
0.32
-0.11
-0.46
-0.56
-0.34
0.12
0.66
1.09
1.29
1.22
0.93
0.51
0.05
-0.34
-0.59
-0.68
-0.61
-0.43
-0.21
-0.01
0.11
0.11
0.01
-0.18
-0.42
-0.66
-0.84
-0.94
-0.97
-1.00
-1.10
-1.29
-1.56
-1.80
-1.95
-1.96
-1.88
-1.76
-1.63
-1.44
-1.12
-0.63
0.01
0.61
0.98
0.99
0.67
0.20
-0.17
-0.22
0.09
0.66
1.27
1.71
1.87
1.72
1.34
0.84
0.32
-0.11
-0.39
-0.47
-0.38
-0.19
-0.01
0.07
0.05
0.03
0.11
0.34
0.64
0.90
0.98
0.86
0.65
0.54
0.65
0.98
1.38
1.65
1.68
1.52
1.34
1.36
1.68
2.21
2.72
2.95
2.78
2.23
1.47
0.72
0.12
-0.28
-0.51
-0.64
-0.73
-0.81
-0.90
-1.02
-1.16
-1.27
-1.30
-1.22
-1.04
-0.86
-0.81
-0.97
-1.33
-1.79
-2.20
-2.48
-2.59
-2.63
-2.67
-2.81
-3.05
-3.39
-3.77
-4.16
-4.49
-4.72
-4.76
-4.56
-4.14
-3.57
-2.96
-2.43
-2.00
-1.62
-1.18
-0.60
0.13
0.90
1.59
2.09
2.40
2.59
2.76
3.01
3.35
3.71
4.00
4.16
4.15
3.98
3.67
3.27
2.79
2.28
1.76
1.30
0.99
0.91
1.08
1.48
1.95
2.33
2.41
2.13
1.55
0.84
0.21
-0.16
-0.24
-0.07
0.22
0.55
0.88
1.21
1.53
1.81
1.97
1.99
1.87
1.69
1.56
1.51
1.54
1.58
1.57
1.51
1.41
1.30
1.19
1.03
0.78
0.41
-0.02
-0.47
-0.88
-1.24
-1.60
-1.98
-2.44
-2.98
-3.55
-4.12
-4.63
-5.03
-5.26
-5.27
-5.04
-4.57
-3.93
-3.17
-2.36
-1.55
-0.76
-0.03
0.62
1.14
1.47
1.57
1.41
1.05
0.55
0.03
-0.39
-0.61
-0.58
-0.33
0.06
0.47
0.76
0.85
0.71
0.39
-0.04
-0.46
-0.78
-0.98
-1.04
-0.97
-0.78
-0.43
0.04
0.59
1.13
1.51
1.64
1.47
1.07
0.55
0.07
-0.26
-0.40
-0.40
-0.36
-0.34
-0.39
-0.45
-0.47
-0.39
-0.23
-0.03
0.15
0.25
0.31
0.33
0.35
0.31
0.19
-0.03
-0.30
-0.53
-0.63
-0.57
-0.38
-0.14
0.05
0.13
0.09
-0.05
-0.25
-0.45
-0.59
-0.65
-0.63
-0.59
-0.58
-0.63
-0.73
-0.82
-0.83
-0.78
-0.69
-0.63
-0.61
-0.63
-0.61
-0.53
-0.37
-0.19
-0.01
0.12
0.25
0.42
0.61
0.81
0.92
0.90
0.75
0.54
0.36
0.24
0.19
0.16
0.14
0.12
0.18
0.34
0.60
0.90
1.14
1.27
1.27
1.18
1.04
0.87
0.65
0.35
-0.04
-0.51
-0.97
-1.34
-1.51
-1.43
-1.12
-0.68
-0.22
0.13
0.32
0.37
0.35
0.33
0.32
0.29
0.13
-0.22
-0.75
-1.40
-2.03
-2.51
-2.82
-2.98
-3.12
-3.35
-3.73
-4.22
-4.73
-5.13
-5.34
-5.32
-5.12
-4.84
-4.65
-4.70
-5.08
-5.80
-6.76
-7.76
-8.62
-9.23
-9.60
-9.87
-10.20
-10.75
-11.56
-12.54
-13.42
-13.79
-13.13
-11.02
-7.34
-2.42
2.88
7.46
10.23
10.58
8.48
4.54
-0.22
-4.64
-7.77
-9.15
-8.91
-7.85
-7.12
-7.87
-10.74
-15.56
-21.42
-27.04
-31.33
-33.82
-34.67
-34.40
-33.50
-32.18
-30.40
-27.99
-24.62
-19.73
-12.50
-2.10
11.71
28.02
44.66
58.86
68.32
72.21
71.47
68.23
64.68
62.12
60.65
59.48
57.66
54.52
49.87
43.80
36.55
28.42
19.90
11.65
4.42
-1.17
-4.83
-6.65
-7.04
-6.54
-5.72
-5.09
-5.04
-5.75
-7.18
-9.03
-10.91
-12.46
-13.53
-14.23
-14.82
-15.56
-16.55
-17.66
-18.62
-19.18
-19.22
-18.78
-17.98
-16.95
-15.73
-14.28
-12.55
-10.52
-8.28
-5.98
-3.77
-1.71
0.19
2.04
3.92
5.88
7.90
9.90
11.76
13.40
14.77
15.88
16.75
17.36
17.67
17.65
17.35
16.91
16.62
16.74
17.40
18.55
19.94
21.32
22.45
23.19
23.52
23.42
22.91
22.02
20.95
19.95
19.32
19.20
19.44
19.59
19.03
17.21
13.96
9.47
4.31
-0.82
-5.32
-8.92
-11.67
-13.91
-16.04
-18.33
-20.77
-23.11
-24.94
-25.94
-25.99
-25.25
-24.04
-22.74
-21.63
-20.85
-20.48
-20.62
-21.40
-22.89
-25.00
-27.40
-29.61
-31.21
-31.95
-31.91
-31.37
-30.66
-30.05
-29.65
-29.46
-29.49
-29.86
-30.66
-31.94
-33.49
-34.89
-35.51
-34.68
-31.79
-26.50
-18.89
-9.61
0.30
9.64
17.47
23.32
27.32
29.93
31.61
32.56
32.73
31.97
30.32
28.07
25.67
23.43
21.37
19.22
16.64
13.52
10.09
6.89
4.49
3.23
3.07
3.54
3.97
3.72
2.38
-0.06
-3.25
-6.64
-9.62
-11.75
-12.77
-12.67
-11.63
-9.98
-8.09
-6.38
-5.20
-4.74
-5.01
-5.79
-6.75
-7.57
-7.96
-7.79
-6.99
-5.61
-3.71
-1.39
1.10
3.42
5.00
5.20
3.52
-0.14
-5.24
-10.63
-14.82
-16.55
-15.32
-11.60
-6.68
-2.15
0.81
1.79
1.21
0.00
-0.79
-0.26
2.26
7.17
14.54
24.09
35.07
46.44
57.03
65.90
72.44
76.36
77.44
75.36
69.61
59.81
46.05
29.22
11.04
-6.30
-20.75
-31.05
-37.05
-39.67
-40.31
-40.16
-39.64
-38.37
-35.62
-30.94
-24.54
-17.32
-10.41
-4.69
-0.47
2.36
3.99
4.46
3.55
1.13
-2.64
-7.17
-11.57
-15.03
-17.13
-17.85
-17.49
-16.43
-14.97
-13.32
-11.69
-10.36
-9.61
-9.67
-10.56
-12.16
-14.25
-16.74
-19.68
-23.31
-27.87
-33.43
-39.78
-46.39
-52.53
-57.44
-60.60
-61.84
-61.63
-61.02
-61.37
-63.93
-69.36
-77.38
-86.77
-95.74
-102.64
-106.62
-107.51
-105.71
-101.69
-95.85
-88.57
-80.18
-70.77
-59.85
-46.25
-28.58
-6.38
18.96
43.95
64.05
75.53
77.24
71.11
61.13
51.29
43.82
38.55
33.95
28.55
22.18
15.88
11.15
8.65
7.50
5.58
0.70
-7.98
-19.40
-30.75
-38.83
-41.64
-39.38
-34.39
-30.15
-29.80
-35.02
-45.58
-59.48
-73.43
-83.45
-85.51
-76.61
-56.02
-26.03
8.37
41.37
68.67
89.31
105.67
121.59
139.75
159.98
179.39
194.39
202.87
205.44
204.73
203.67
203.65
203.97
202.69
198.16
190.32
180.96
172.97
169.21
171.55
180.47
195.12
213.69
233.64
251.82
264.77
269.40
263.73
247.50
222.32
190.98
156.39
120.67
84.64
47.93
9.59
-31.12
-74.04
-117.67
-159.21
-195.09
-221.94
-237.71
-242.31
-237.66
-226.82
-212.87
-198.02
-183.42
-169.50
-156.65
-145.48
-136.58
-130.03
-125.05
-120.27
-114.31
-106.45
-96.92
-86.71
-77.11
-69.02
-62.78
-58.13
-54.53
-51.46
-48.53
-45.56
-42.52
-39.53
-36.81
-34.62
-33.06
-32.02
-31.13
-29.95
-28.22
-25.98
-23.61
-21.59
-20.30
-19.79
-19.86
-20.16
-20.37
-20.27
-19.73
-18.61
-16.73
-13.95
-10.22
-5.75
-0.93
3.73
7.81
11.05
13.42
15.01
16.01
16.75
17.68
19.34
22.27
26.73
32.52
38.96
45.14
50.23
53.88
56.23
57.73
58.87
59.76
60.15
59.47
57.07
52.52
45.76
37.12
27.28
17.06
7.19
-1.85
-9.85
-16.79
-22.65
-27.31
-30.55
-32.30
-32.75
-32.45
-32.15
-32.45
-33.56
-35.20
-36.73
-37.54
-37.36
-36.37
-35.03
-33.82
-32.86
-31.83
-30.17
-27.36
-23.27
-18.26
-13.00
-8.14
-4.08
-0.90
1.58
3.57
5.36
7.29
9.77
13.12
17.28
21.55
24.69
25.38
22.93
17.81
11.57
6.35
3.95
5.18
9.56
15.59
21.32
24.99
25.48
22.55
16.71
9.02
0.74
-7.13
-13.95
-19.61
-24.26
-28.17
-31.53
-34.40
-36.78
-38.65
-40.00
-40.72
-40.51
-38.87
-35.27
-29.37
-21.19
-11.24
-0.42
10.12
19.26
26.16
30.52
32.51
32.66
31.54
29.51
26.65
22.89
18.36
13.51
9.17
6.19
5.12
5.88
7.94
10.57
13.28
15.88
18.41
20.84
22.94
24.27
24.50
23.60
21.92
20.03
18.43
17.35
16.65
15.89
14.52
12.12
8.57
4.28
0.23
-2.30
-2.13
1.16
6.98
13.73
19.45
22.57
22.53
19.79
15.42
10.35
4.95
-0.98
-7.84
-15.66
-23.99
-32.04
-39.21
-45.32
-50.52
-54.81
-57.68
-58.12
-55.16
-48.54
-39.13
-28.72
-19.29
-12.23
-7.93
-5.88
-5.14
-4.84
-4.41
-3.61
-2.34
-0.56
1.75
4.42
7.15
9.55
11.28
12.16
12.13
11.33
10.06
8.69
7.62
7.15
7.33
7.97
8.74
9.27
9.37
9.08
8.60
8.16
7.92
7.91
8.03
8.17
8.29
8.47
8.82
9.43
10.29
11.26
12.18
12.88
13.31
13.41
13.17
12.55
11.51
10.10
8.40
6.59
4.84
3.29
2.05
1.12
0.52
0.17
0.02
-0.04
-0.15
-0.41
-0.86
-1.48
-2.21
-3.01
-3.90
-4.94
-6.17
-7.54
-8.90
-9.98
-10.51
-10.30
-9.29
-7.55
-5.24
-2.55
0.33
3.16
5.71
7.75
9.11
9.70
9.55
8.78
7.59
6.20
4.77
3.38
2.05
0.78
-0.43
-1.52
-2.40
-2.95
-3.16
-3.12
-2.97
-2.85
-2.84
-2.90
-2.96
-2.93
-2.80
-2.60
-2.36
-2.10
-1.81
-1.49
-1.15
-0.86
-0.67
-0.63
-0.72
-0.91
-1.15
-1.41
-1.64
-1.83
-1.94
-1.95
-1.87
-1.76
-1.68
-1.69
-1.77
-1.87
-1.94
-1.96
-1.93
-1.92
-1.95
-2.01
-2.08
-2.13
-2.16
-2.27
-2.54
-3.01
-3.64
-4.32
-4.83
-5.04
-4.86
-4.35
-3.62
-2.83
-2.14
-1.63
-1.37
-1.35
-1.51
-1.74
-1.89
-1.81
-1.42
-0.78
-0.04
0.59
0.98
1.12
1.07
0.96
0.85
0.76
0.67
0.56
0.40
0.24
0.09
-0.04
-0.10
-0.09
0.01
0.17
0.30
0.33
0.20
-0.09
-0.49
-0.89
-1.21
-1.39
-1.39
-1.22
-0.94
-0.59
-0.25
0.03
0.27
0.50
0.79
1.15
1.50
1.73
1.74
1.50
1.06
0.56
0.13
-0.12
-0.17
-0.05
0.12
0.22
0.19
0.00
-0.29
-0.57
-0.76
-0.83
-0.79
-0.68
-0.57
-0.46
-0.37
-0.28
-0.17
-0.04
0.10
0.24
0.35
0.43
0.47
0.49
0.51
0.59
0.74
0.93
1.11
1.20
1.18
1.05
0.89
0.73
0.60
0.51
0.44
0.37
0.28
0.16
0.02
-0.13
-0.28
-0.40
-0.49
-0.57
-0.68
-0.85
-1.06
-1.26
-1.39
-1.33
-1.06
-0.60
-0.05
0.47
0.82
0.94
0.81
0.48
0.04
-0.44
-0.86
-1.15
-1.23
-1.05
-0.63
-0.07
0.47
0.81
0.84
0.60
0.23
-0.11
-0.29
-0.33
-0.30
-0.29
-0.33
-0.37
-0.35
-0.21
-0.01
0.14
0.14
-0.07
-0.40
-0.71
-0.85
-0.73
-0.39
0.04
0.39
0.51
0.36
0.05
-0.24
-0.31
-0.06
0.46
1.09
1.63
1.94
1.98
1.82
1.56
1.27
0.99
0.70
0.38
0.03
-0.30
-0.54
-0.65
-0.61
-0.50
-0.48
-0.66
-1.10
-1.73
-2.38
-2.80
-2.83
-2.45
-1.79
-1.05
-0.41
0.06
0.37
0.60
0.80
0.98
1.12
1.23
1.33
1.46
1.64
1.79
1.83
1.68
1.34
0.88
0.43
0.09
-0.09
-0.18
-0.25
-0.35
-0.46
-0.52
-0.51
-0.43
-0.37
-0.40
-0.51
-0.62
-0.62
-0.46
-0.16
0.14
0.31
0.31
0.19
0.06
0.05
0.20
0.49
0.89
1.35
1.83
2.31
2.71
2.99
3.15
3.22
3.25
3.28
3.34
3.38
3.39
3.40
3.42
3.48
3.53
3.51
3.41
3.27
3.22
3.32
3.55
3.80
3.91
3.82
3.58
3.37
3.36
3.62
4.09
4.50
4.54
3.90
2.36
-0.09
-3.36
-7.18
-11.21
-15.04
-18.23
-20.39
-21.30
-21.01
-19.81
-18.17
-16.53
-15.20
-14.28
-13.71
-13.40
-13.26
-13.23
-13.17
-12.85
-11.98
-10.32
-7.85
-4.70
-1.18
2.38
5.76
8.82
11.47
13.64
15.25
16.21
16.47
16.07
15.09
13.71
12.15
10.63
9.36
8.45
7.91
7.66
7.55
7.44
7.23
6.88
6.43
5.98
5.69
5.69
6.07
6.80
7.76
8.74
9.56
10.16
10.67
11.35
12.44
14.02
15.89
17.64
18.78
19.05
18.51
17.55
16.76
16.76
18.10
21.04
25.28
29.73
32.63
32.01
26.59
16.52
3.54
-9.57
-20.15
-26.71
-29.35
-29.36
-28.25
-26.97
-25.62
-23.82
-21.35
-18.47
-15.88
-14.26
-13.85
-14.34
-15.04
-15.27
-14.65
-13.24
-11.48
-9.94
-9.06
-9.00
-9.58
-10.39
-10.93
-10.86
-10.10
-8.87
-7.53
-6.43
-5.71
-5.34
-5.11
-4.76
-4.18
-3.39
-2.53
-1.80
-1.28
-0.98
-0.80
-0.66
-0.51
-0.42
-0.47
-0.73
-1.18
-1.70
-2.14
-2.37
-2.35
-2.14
-1.85
-1.64
-1.59
-1.73
-2.00
-2.27
-2.43
-2.40
-2.18
-1.80
-1.33
-0.86
-0.48
-0.26
-0.28
-0.58
-1.14
-1.86
-2.56
-3.07
-3.23
-3.00
-2.43
-1.63
-0.72
0.19
1.02
1.74
2.32
2.76
3.06
3.24
3.34
3.42
3.44
3.31
2.92
2.23
1.30
0.37
-0.26
-0.36
0.12
1.02
2.02
2.81
3.18
3.15
2.84
2.45
2.12
1.94
1.91
2.03
2.27
2.57
2.84
2.94
2.80
2.34
1.61
0.72
-0.22
-1.06
-1.72
-2.15
-2.36
-2.40
-2.37
-2.35
-2.41
-2.58
-2.83
-3.07
-3.22
-3.20
-2.95
-2.47
-1.83
-1.15
-0.57
-0.22
-0.20
-0.47
-0.91
-1.31
-1.45
-1.14
-0.34
0.89
2.33
3.73
4.81
5.38
5.37
4.79
3.77
2.46
1.08
-0.16
-1.06
-1.51
-1.52
-1.19
-0.71
-0.27
0.08
0.33
0.59
0.93
1.33
1.72
1.94
1.90
1.57
1.03
0.42
-0.09
-0.39
-0.40
-0.17
0.16
0.41
0.42
0.13
-0.35
-0.82
-1.08
-1.00
-0.64
-0.15
0.26
0.45
0.41
0.20
-0.08
-0.34
-0.55
-0.67
-0.67
-0.49
-0.12
0.39
0.90
1.23
1.25
1.00
0.61
0.30
0.21
0.35
0.56
0.60
0.29
-0.40
-1.36
-2.30
-2.94
-3.08
-2.69
-1.94
-1.17
-0.73
-0.90
-1.71
-2.91
-4.09
-4.82
-4.88
-4.41
-3.86
-3.71
-4.28
-5.45
-6.74
-7.44
-7.02
-5.31
-2.68
0.12
2.14
2.56
0.83
-3.16
-8.94
-15.36
-20.73
-23.15
-21.23
-14.66
-4.56
6.94
17.50
25.45
30.35
32.76
33.53
33.18
31.68
28.83
24.89
20.94
18.68
19.65
24.33
31.86
40.25
47.33
51.70
53.38
53.96
55.98
62.29
74.96
94.35
118.31
142.16
159.37
163.16
148.67
114.94
66.05
10.41
-41.47
-80.30
-100.84
-103.22
-92.14
-74.50
-56.60
-42.25
-32.35
-25.91
-21.48
-18.30
-16.41
-16.22
-17.69
-20.19
-22.86
-25.17
-27.26
-29.73
-33.17
-37.57
-42.02
-44.94
-44.71
-40.31
-31.85
-20.58
-8.55
2.07
9.73
13.84
14.80
13.61
11.39
9.01
6.95
5.42
4.41
3.78
3.14
1.83
-1.00
-6.03
-13.29
-21.93
-30.38
-36.98
-40.73
-41.76
-41.23
-40.66
-41.14
-42.81
-44.94
-46.46
-46.70
-45.71
-44.20
-43.04
-42.76
-43.26
-44.01
-44.35
-43.88
-42.56
-40.61
-38.29
-35.72
-32.89
-29.80
-26.60
-23.71
-21.72
-21.11
-21.95
-23.63
-24.97
-24.60
-21.51
-15.50
-7.32
1.53
9.51
15.63
19.90
23.28
27.14
32.47
39.38
46.97
53.82
58.67
60.94
60.84
59.06
56.30
52.96
49.18
45.08
41.02
37.54
35.14
33.95
33.62
33.42
32.51
30.33
26.75
22.09
16.96
12.01
7.77
4.47
2.09
0.42
-0.83
-1.91
-3.03
-4.31
-5.84
-7.58
-9.46
-11.30
-12.88
-14.05
-14.79
-15.23
-15.64
-16.25
-17.23
-18.55
-20.07
-21.53
-22.65
-23.22
-23.12
-22.35
-21.02
-19.31
-17.40
-15.48
-13.67
-12.04
-10.67
-9.60
-8.89
-8.56
-8.52
-8.56
-8.33
-7.48
-5.75
-3.16
-0.01
3.21
6.00
8.00
9.09
9.35
8.92
7.89
6.19
3.69
0.36
-3.58
-7.57
-10.84
-12.63
-12.50
-10.55
-7.46
-4.25
-1.95
-1.21
-2.14
-4.24
-6.68
-8.58
-9.35
-8.90
-7.75
-6.91
-7.66
-11.10
-17.79
-27.42
-38.90
-50.59
-60.80
-68.19
-72.04
-72.35
-69.87
-66.05
-62.93
-62.61
-66.73
-75.93
-89.79
-107.34
-127.75
-150.81
-176.64
-204.71
-232.94
-257.56
-274.04
-278.72
-270.23
-249.95
-221.21
-187.85
-152.94
-118.10
-83.91
-50.39
-17.43
15.18
48.02
82.48
120.61
164.49
215.05
270.90
327.76
379.19
418.24
439.86
442.61
429.04
404.37
374.09
341.64
307.40
269.47
225.77
176.17
123.52
72.96
29.93
-1.90
-21.94
-32.43
-37.09
-39.44
-41.42
-43.28
-44.19
-43.30
-40.45
-36.37
-32.18
-28.79
-26.39
-24.39
-21.86
-17.95
-12.44
-5.80
1.19
7.93
14.19
19.77
23.87
24.75
20.26
8.96
-8.60
-29.63
-49.84
-65.24
-73.68
-75.44
-72.56
-67.48
-61.89
-56.37
-50.88
-45.43
-40.54
-36.90
-34.89
-34.17
-33.73
-32.46
-29.63
-25.26
-20.15
-15.38
-11.91
-10.14
-9.84
-10.31
-10.69
-10.33
-9.01
-6.93
-4.57
-2.44
-0.89
0.02
0.49
0.84
1.38
2.18
3.14
3.98
4.48
4.56
4.32
3.98
3.74
3.65
3.61
3.47
3.12
2.62
2.12
1.83
1.85
2.11
2.43
2.61
2.50
2.12
1.57
1.00
0.52
0.20
0.03
-0.03
-0.01
0.08
0.22
0.43
0.67
0.85
0.84
0.52
-0.21
-1.30
-2.60
-3.85
-4.81
-5.27
-5.21
-4.77
-4.14
-3.54
-3.11
-2.86
-2.72
-2.65
-2.62
-2.69
-2.90
-3.26
-3.74
-4.30
-4.89
-5.43
-5.70
-5.36
-4.09
-1.70
1.59
5.24
8.53
10.82
11.79
11.54
10.46
9.07
7.85
7.11
6.99
7.44
8.23
9.03
9.51
9.47
8.95
8.13
7.26
6.47
5.76
5.04
4.24
3.36
2.47
1.65
0.91
0.23
-0.43
-1.05
-1.57
-1.92
-2.07
-2.04
-1.91
-1.77
-1.65
-1.58
-1.54
-1.49
-1.40
-1.20
-0.81
-0.25
0.39
0.90
1.05
0.76
0.12
-0.61
-1.13
-1.28
-1.08
-0.74
-0.46
-0.35
-0.37
-0.36
-0.18
0.19
0.62
0.95
1.04
0.90
0.66
0.47
0.41
0.47
0.54
0.48
0.23
-0.16
-0.57
-0.89
-1.03
-0.98
-0.81
-0.61
-0.46
-0.37
-0.37
-0.42
-0.45
-0.40
-0.20
0.17
0.68
1.25
1.78
2.21
2.53
2.77
2.96
3.13
3.32
3.56
3.91
4.43
5.11
5.93
6.81
7.69
8.53
9.35
10.16
10.92
11.57
12.02
12.22
12.17
11.92
11.53
11.04
10.42
9.60
8.49
7.00
5.04
2.62
-0.13
-2.95
-5.51
-7.57
-9.07
-10.21
-11.34
-12.76
-14.61
-16.75
-18.90
-20.73
-22.07
-22.92
-23.43
-23.91
-24.66
-25.86
-27.40
-28.81
-29.23
-27.73
-23.74
-17.33
-9.35
-1.18
5.92
11.24
14.84
17.29
19.24
20.94
21.81
20.72
16.54
8.98
-0.86
-10.53
-17.11
-18.50
-14.20
-5.49
5.15
14.89
21.04
21.14
12.90
-5.37
-33.57
-68.83
-105.15
-134.66
-150.08
-147.06
-125.13
-86.67
-35.00
26.65
94.84
164.43
227.72
275.40
299.39
295.96
267.16
219.79
162.64
103.55
47.99
-0.59
-39.75
-67.66
-83.61
-88.80
-86.55
-81.16
-76.20
-73.33
-72.29
-72.02
-71.82
-71.91
-73.05
-75.72
-79.47
-82.98
-84.41
-81.78
-73.25
-57.50
-34.32
-5.26
26.06
54.47
74.85
83.80
80.97
69.01
52.42
35.91
22.95
15.22
12.73
14.27
17.82
20.90
20.85
15.25
2.73
-16.45
-39.82
-62.97
-80.57
-87.91
-82.69
-65.97
-41.93
-16.37
5.35
20.08
27.41
28.94
26.88
22.88
17.67
11.55
5.15
-0.44
-3.90
-4.55
-2.71
0.37
3.17
4.59
4.42
3.26
2.10
1.76
2.57
4.26
6.26
7.97
9.08
9.68
10.17
11.01
12.51
14.70
17.38
20.30
23.32
26.52
30.04
33.87
37.56
40.22
40.67
37.92
31.58
22.04
10.40
-1.92
-13.58
-23.62
-31.51
-36.96
-39.82
-39.99
-37.62
-33.13
-27.33
-21.24
-15.82
-11.78
-9.38
-8.50
-8.75
-9.72
-11.09
-12.76
-14.77
-17.17
-19.82
-22.24
-23.75
-23.72
-21.83
-18.19
-12.99
-6.20
2.64
14.05
28.06
43.66
58.64
70.11
75.55
73.81
65.65
53.60
41.24
32.02
28.33
31.08
39.76
52.90
68.35
83.60
96.13
103.90
106.11
103.68
99.33
96.69
98.97
107.69
122.16
140.08
158.87
176.97
194.39
212.11
230.89
250.28
268.38
282.70
291.34
293.84
291.29
285.74
279.03
271.94
263.98
253.88
240.46
223.37
203.24
181.43
159.29
137.70
116.79
96.14
75.09
53.09
30.07
6.37
-17.32
-40.28
-62.05
-82.64
-102.50
-122.35
-142.88
-164.65
-188.15
-213.81
-241.89
-271.99
-302.59
-330.83
-353.05
-365.87
-367.46
-358.31
-341.02
-319.25
-296.31
-274.25
-253.75
-234.77
-217.28
-201.78
-189.07
-179.65
-173.20
-168.39
-163.40
-156.54
-147.04
-135.27
-122.49
-110.18
-99.36
-90.24
-82.27
-74.72
-67.15
-59.62
-52.56
-46.40
-41.31
-37.11
-33.49
-30.22
-27.22
-24.54
-22.21
-20.21
-18.43
-16.67
-14.66
-12.07
-8.58
-4.17
0.66
4.84
7.06
6.36
2.61
-3.33
-10.02
-15.96
-20.17
-22.50
-23.55
-24.42
-26.29
-30.07
-35.85
-42.60
-48.16
-49.67
-44.59
-31.65
-11.60
12.83
37.59
58.52
72.40
77.81
75.27
66.91
55.71
44.56
35.50
29.36
25.86
23.98
22.66
21.20
19.43
17.56
15.84
14.31
12.73
10.84
8.53
6.21
4.66
4.59
6.06
8.33
10.07
10.23
8.65
6.18
4.18
3.50
3.95
4.45
3.80
1.50
-1.92
-5.42
-8.16
-9.99
-11.38
-12.81
-14.28
-15.29
-15.35
-14.47
-13.45
-13.39
-15.08
-18.47
-22.63
-26.23
-28.27
-28.47
-27.36
-25.86
-24.77
-24.37
-24.45
-24.43
-23.57
-21.00
-15.69
-6.90
5.33
19.50
32.69
41.46
43.38
38.35
28.99
19.51
13.67
12.97
16.04
19.66
20.69
17.80
11.89
5.25
0.03
-2.85
-3.89
-4.19
-4.57
-5.04
-5.01
-3.96
-1.97
0.23
1.73
2.02
1.24
0.06
-0.85
-1.15
-1.00
-0.89
-1.31
-2.46
-4.09
-5.52
-5.76
-3.77
1.05
8.46
17.20
25.34
30.87
32.45
29.91
24.24
17.07
9.97
3.98
-0.59
-3.87
-6.17
-7.69
-8.55
-8.84
-8.80
-8.75
-8.95
-9.51
-10.27
-10.93
-11.14
-10.74
-9.77
-8.51
-7.27
-6.30
-5.69
-5.39
-5.28
-5.19
-5.01
-4.68
-4.26
-3.89
-3.70
-3.75
-3.96
-4.17
-4.15
-3.79
-3.13
-2.32
-1.55
-0.93
-0.51
-0.23
0.01
0.21
0.32
0.27
-0.01
-0.46
-0.94
-1.30
-1.43
-1.35
-1.14
-0.93
-0.82
-0.86
-1.01
-1.23
-1.46
-1.64
-1.78
-1.87
-1.98
-2.16
-2.49
-3.00
-3.68
-4.52
-5.48
-6.54
-7.76
-9.16
-10.77
-12.52
-14.28
-15.94
-17.41
-18.73
-20.06
-21.60
-23.59
-26.17
-29.34
-32.96
-36.80
-40.55
-44.04
-47.30
-50.60
-54.39
-59.10
-64.94
-71.83
-79.40
-87.21
-94.99
-102.75
-110.71
-119.25
-128.73
-139.43
-151.57
-165.29
-180.34
-195.77
-209.82
-220.44
-226.23
-227.31
-225.56
-223.79
-224.28
-227.54
-232.01
-234.92
-233.78
-227.58
-217.03
-203.83
-189.55
-174.75
-158.96
-141.20
-120.65
-97.11
-70.91
-42.71
-13.36
16.43
46.12
75.48
104.55
133.61
163.18
194.01
227.09
263.43
303.48
346.27
388.97
427.08
455.67
471.03
472.04
460.62
440.90
417.77
395.22
375.48
359.02
345.13
332.77
321.08
309.56
298.02
286.44
274.87
263.38
252.01
241.01
231.05
223.26
218.87
218.52
221.57
225.93
228.64
226.88
219.10
205.46
187.46
166.94
145.22
122.66
98.91
73.61
46.79
19.00
-9.06
-37.06
-65.38
-95.11
-127.65
-163.93
-203.63
-244.56
-282.76
-313.43
-332.48
-338.02
-331.11
-315.29
-295.18
-274.78
-256.45
-240.74
-227.10
-214.71
-203.03
-191.87
-181.06
-170.32
-159.31
-147.99
-136.63
-125.69
-115.42
-105.61
-95.54
-84.06
-69.90
-51.86
-29.32
-2.64
26.41
54.80
79.02
96.34
106.03
109.69
110.28
110.13
109.15
104.44
91.75
68.09
34.08
-5.71
-44.41
-75.56
-95.29
-102.91
-100.00
-89.06
-72.55
-52.88
-32.82
-15.49
-3.62
1.47
0.58
-3.84
-8.83
-12.19
-13.14
-12.07
-9.84
-7.20
-4.61
-2.44
-1.08
-0.89
-1.88
-3.64
-5.42
-6.47
-6.35
-5.15
-3.40
-1.73
-0.65
-0.29
-0.48
-0.86
-1.10
-1.00
-0.54
0.12
0.76
1.18
1.30
1.16
0.93
0.78
0.81
0.97
1.11
1.05
0.67
-0.01
-0.83
-1.58
-2.07
-2.20
-1.98
-1.49
-0.86
-0.23
0.25
0.47
0.36
-0.04
-0.63
-1.25
-1.74
-1.99
-1.93
-1.62
-1.13
-0.56
-0.02
0.41
0.67
0.71
0.53
0.15
-0.34
-0.85
-1.25
-1.46
-1.40
-1.10
-0.65
-0.18
0.17
0.31
0.21
-0.08
-0.49
-0.95
-1.39
-1.74
-1.98
-2.05
-1.97
-1.79
-1.65
-1.67
-1.92
-2.35
-2.80
-3.07
-3.07
-2.86
-2.68
-2.77
-3.27
-4.09
-5.02
-5.76
-6.10
-6.02
-5.68
-5.32
-5.12
-5.10
-5.13
-4.93
-4.26
-3.06
-1.49
0.03
1.05
1.21
0.38
-1.38
-3.81
-6.51
-8.85
-9.92
-8.76
-4.71
2.01
10.18
17.89
23.27
25.34
24.38
21.67
18.69
16.35
14.63
12.92
10.61
7.62
4.47
1.89
0.39
-0.08
0.05
0.28
0.34
0.38
0.71
1.63
3.11
4.82
6.30
7.13
7.17
6.59
5.72
4.97
4.57
4.55
4.72
4.82
4.57
3.87
2.79
1.48
0.13
-1.22
-2.65
-4.22
-5.91
-7.46
-8.54
-8.82
-8.25
-7.06
-5.64
-4.41
-3.59
-3.20
-3.18
-3.49
-4.14
-5.10
-6.22
-7.22
-7.83
-7.88
-7.46
-6.80
-6.15
-5.64
-5.25
-4.88
-4.45
-3.98
-3.54
-3.18
-2.86
-2.47
-1.94
-1.25
-0.55
-0.01
0.22
0.11
-0.25
-0.65
-0.86
-0.72
-0.19
0.63
1.56
2.39
2.98
3.25
3.28
3.19
3.15
3.32
3.85
4.75
5.91
7.06
7.81
7.83
6.96
5.31
3.29
1.37
-0.06
-0.83
-1.00
-0.75
-0.24
0.45
1.21
1.78
1.77
0.73
-1.52
-4.68
-8.06
-10.74
-12.00
-11.67
-10.09
-7.96
-5.93
-4.41
-3.50
-3.14
-3.27
-3.84
-4.76
-5.82
-6.66
-6.96
-6.62
-5.83
-5.05
-4.74
-5.14
-6.15
-7.52
-8.98
-10.48
-12.21
-14.39
-17.06
-19.97
-22.65
-24.64
-25.79
-26.46
-27.47
-29.81
-34.38
-41.65
-51.55
-63.43
-76.36
-89.43
-102.15
-114.70
-127.87
-142.64
-159.90
-180.12
-203.24
-228.66
-255.12
-280.76
-303.16
-319.85
-328.91
-329.68
-322.93
-310.55
-294.75
-277.32
-259.14
-240.43
-221.02
-200.78
-179.59
-157.23
-133.28
-107.31
-79.23
-49.54
-19.25
10.41
38.49
64.72
89.55
114.08
139.76
168.06
199.96
235.28
272.15
307.10
335.68
353.90
359.56
353.12
337.40
316.38
293.64
271.40
250.33
230.29
211.17
193.40
177.76
164.84
154.55
146.04
138.08
129.65
120.35
110.43
100.62
91.62
83.77
76.95
70.68
64.43
57.85
50.96
44.12
37.81
32.44
28.15
24.79
21.99
19.33
16.52
13.51
10.49
7.80
5.73
4.40
3.66
3.21
2.72
1.98
1.01
0.03
-0.68
-0.95
-0.78
-0.39
-0.04
0.05
-0.16
-0.52
-0.76
-0.66
-0.13
0.72
1.64
2.34
2.64
2.53
2.15
1.71
1.39
1.27
1.29
1.36
1.41
1.40
1.34
1.24
1.04
0.69
0.14
-0.54
-1.22
-1.72
-1.91
-1.80
-1.47
-1.08
-0.79
-0.70
-0.83
-1.13
-1.48
-1.77
-1.88
-1.78
-1.45
-0.97
-0.42
0.05
0.33
0.36
0.12
-0.32
-0.81
-1.19
-1.37
-1.35
-1.24
-1.22
-1.45
-1.98
-2.71
-3.44
-3.95
-4.10
-3.89
-3.43
-2.95
-2.68
-2.77
-3.24
-3.98
-4.78
-5.44
-5.75
-5.64
-5.18
-4.54
-4.00
-3.82
-4.16
-5.03
-6.25
-7.55
-8.68
-9.46
-9.91
-10.22
-10.68
-11.59
-13.11
-15.18
-17.48
-19.50
-20.69
-20.67
-19.41
-17.22
-14.61
-12.12
-10.08
-8.48
-6.95
-4.86
-1.56
3.33
9.65
16.61
23.02
27.70
29.97
29.93
28.36
26.24
24.31
22.80
21.47
20.07
18.57
17.26
16.51
16.45
16.75
16.84
16.15
14.48
12.08
9.53
7.41
6.01
5.30
4.97
4.68
4.17
3.39
2.42
1.42
0.61
0.17
0.29
1.02
2.24
3.63
4.76
5.24
4.92
3.94
2.66
1.47
0.63
0.17
-0.04
-0.13
-0.18
-0.24
-0.38
-0.71
-1.40
-2.54
-4.05
-5.69
-7.10
-7.99
-8.29
-8.14
-7.79
-7.44
-7.15
-6.84
-6.38
-5.74
-4.99
-4.29
-3.81
-3.59
-3.54
-3.51
-3.37
-3.09
-2.77
-2.58
-2.62
-2.90
-3.31
-3.65
-3.73
-3.46
-2.87
-2.12
-1.39
-0.81
-0.43
-0.20
-0.04
0.09
0.17
0.18
0.12
0.05
0.09
0.32
0.71
1.13
1.39
1.36
1.03
0.50
-0.04
-0.41
-0.57
-0.52
-0.34
-0.13
0.08
0.26
0.38
0.39
0.29
0.03
-0.38
-0.90
-1.48
-2.02
-2.41
-2.55
-2.40
-1.97
-1.39
-0.77
-0.24
0.17
0.48
0.75
1.01
1.21
1.29
1.21
0.99
0.74
0.57
0.54
0.60
0.63
0.55
0.32
0.05
-0.14
-0.18
-0.10
-0.02
-0.06
-0.25
-0.53
-0.74
-0.78
-0.60
-0.29
0.07
0.38
0.64
0.85
1.01
1.05
0.93
0.63
0.23
-0.12
-0.28
-0.22
-0.04
0.11
0.12
-0.05
-0.28
-0.46
-0.50
-0.38
-0.20
-0.07
-0.04
-0.13
-0.27
-0.41
-0.48
-0.50
-0.49
-0.52
-0.59
-0.65
-0.62
-0.43
-0.09
0.32
0.61
0.66
0.42
-0.02
-0.47
-0.76
-0.78
-0.50
-0.02
0.51
0.98
1.31
1.52
1.66
1.81
2.02
2.29
2.60
2.87
3.07
3.16
3.15
3.03
2.81
2.49
2.09
1.66
1.27
0.93
0.67
0.47
0.34
0.29
0.33
0.43
0.51
0.44
0.16
-0.32
-0.83
-1.18
-1.19
-0.83
-0.25
0.30
0.57
0.44
-0.02
-0.63
-1.17
-1.48
-1.53
-1.35
-1.02
-0.61
-0.18
0.22
0.49
0.53
0.33
-0.05
-0.42
-0.59
-0.46
-0.04
0.53
1.06
1.46
1.76
2.05
2.45
2.99
3.58
4.05
4.26
4.16
3.80
3.32
2.86
2.49
2.21
1.94
1.64
1.29
0.93
0.60
0.35
0.18
0.06
0.01
0.05
0.20
0.50
0.91
1.35
1.74
1.97
2.02
1.91
1.73
1.59
1.60
1.83
2.32
3.05
3.89
4.67
5.19
5.28
4.86
3.93
2.58
0.96
-0.76
-2.43
-3.88
-5.02
-5.79
-6.17
-6.21
-5.98
-5.56
-5.07
-4.63
-4.34
-4.20
-4.18
-4.15
-3.98
-3.60
-3.04
-2.39
-1.76
-1.22
-0.79
-0.40
-0.00
0.45
0.94
1.43
1.87
2.21
2.40
2.43
2.25
1.85
1.22
0.40
-0.53
-1.43
-2.21
-2.83
-3.30
-3.69
-4.03
-4.33
-4.54
-4.60
-4.51
-4.33
-4.13
-3.97
-3.84
-3.66
-3.37
-2.96
-2.53
-2.23
-2.12
-2.18
-2.28
-2.29
-2.15
-1.90
-1.66
-1.50
-1.42
-1.34
-1.19
-0.96
-0.72
-0.55
-0.52
-0.58
-0.66
-0.66
-0.53
-0.28
0.04
0.34
0.56
0.62
0.46
0.05
-0.56
-1.26
-1.92
-2.45
-2.78
-2.92
-2.89
-2.73
-2.45
-2.14
-1.92
-1.93
-2.30
-3.05
-4.07
-5.14
-6.06
-6.68
-6.99
-7.10
-7.18
-7.38
-7.79
-8.42
-9.25
-10.27
-11.49
-12.94
-14.64
-16.58
-18.78
-21.23
-23.97
-27.00
-30.30
-33.75
-37.19
-40.48
-43.56
-46.50
-49.47
-52.72
-56.50
-60.98
-66.14
-71.79
-77.53
-82.98
-87.93
-92.64
-97.93
-105.00
-114.84
-127.51
-141.50
-153.67
-159.98
-156.59
-141.12
-113.22
-74.70
-28.98
19.55
66.18
106.43
136.67
154.71
160.33
155.24
142.63
126.26
109.41
94.36
82.19
73.06
66.51
61.74
57.73
53.40
47.77
40.15
30.23
18.33
5.57
-5.90
-13.29
-13.98
-6.67
7.65
25.83
43.67
57.66
66.22
70.01
70.95
70.79
70.16
68.51
65.00
59.36
52.34
45.29
39.43
35.16
32.09
29.42
26.49
23.20
19.94
17.29
15.70
15.19
15.37
15.59
15.23
13.92
11.68
8.89
6.17
4.10
3.10
3.22
4.20
5.55
6.77
7.57
7.91
8.02
8.19
8.53
8.82
8.62
7.47
5.19
2.12
-1.07
-3.59
-5.00
-5.30
-4.89
-4.30
-3.81
-3.35
-2.64
-1.41
0.30
2.18
3.73
4.60
4.72
4.28
3.59
2.83
2.02
1.03
-0.16
-1.38
-2.25
-2.34
-1.43
0.32
2.35
3.97
4.60
4.05
2.55
0.64
-1.12
-2.40
-3.20
-3.80
-4.51
-5.52
-6.80
-8.14
-9.26
-9.98
-10.30
-10.40
-10.52
-10.85
-11.42
-12.14
-12.84
-13.37
-13.65
-13.68
-13.39
-12.71
-11.53
-9.79
-7.63
-5.36
-3.39
-1.98
-1.18
-0.77
-0.40
0.20
1.07
2.07
2.98
3.63
3.96
4.03
3.87
3.51
2.91
2.05
0.98
-0.23
-1.43
-2.43
-3.07
-3.22
-2.82
-1.93
-0.74
0.52
1.60
2.33
2.62
2.50
2.07
1.50
0.95
0.50
0.20
-0.01
-0.15
-0.23
-0.24
-0.20
-0.15
-0.16
-0.30
-0.53
-0.73
-0.74
-0.47
0.00
0.52
0.89
1.00
0.90
0.72
0.58
0.52
0.50
0.46
0.34
0.15
-0.02
-0.10
-0.05
0.08
0.17
0.10
-0.18
-0.63
-1.15
-1.59
-1.88
-2.02
-2.11
-2.23
-2.37
-2.45
-2.36
-2.06
-1.62
-1.24
-1.07
-1.11
-1.19
-1.05
-0.52
0.41
1.52
2.51
3.20
3.58
3.77
3.91
4.03
4.00
3.70
3.08
2.25
1.45
0.87
0.60
0.53
0.48
0.26
-0.18
-0.79
-1.41
-1.91
-2.23
-2.36
-2.33
-2.19
-1.94
-1.61
-1.24
-0.95
-0.84
-0.99
-1.37
-1.90
-2.44
-2.89
-3.21
-3.39
-3.45
-3.36
-3.11
-2.73
-2.29
-1.87
-1.56
-1.33
-1.12
-0.84
-0.45
0.03
0.51
0.88
1.05
0.96
0.63
0.13
-0.41
-0.89
-1.19
-1.26
-1.16
-0.97
-0.83
-0.83
-0.95
-1.11
-1.16
-1.01
-0.61
-0.01
0.67
1.33
1.86
2.20
2.32
2.21
1.92
1.53
1.16
0.89
0.74
0.71
0.75
0.83
0.91
1.02
1.15
1.32
1.53
1.73
1.86
1.87
1.70
1.34
0.86
0.34
-0.12
-0.44
-0.62
-0.68
-0.65
-0.60
-0.56
-0.52
-0.52
-0.53
-0.56
-0.58
-0.59
-0.60
-0.62
-0.69
-0.82
-1.04
-1.32
-1.63
-1.91
-2.08
-2.08
-1.92
-1.67
-1.44
-1.33
-1.35
-1.39
-1.32
-1.00
-0.41
0.33
1.03
1.52
1.69
1.61
1.40
1.22
1.14
1.13
1.07
0.87
0.52
0.11
-0.20
-0.29
-0.14
0.19
0.55
0.82
0.94
0.94
0.86
0.75
0.61
0.43
0.20
-0.08
-0.42
-0.81
-1.27
-1.74
-2.15
-2.41
-2.45
-2.28
-1.93
-1.51
-1.08
-0.72
-0.47
-0.38
-0.46
-0.68
-1.00
-1.33
-1.58
-1.75
-1.89
-2.13
-2.56
-3.22
-4.03
-4.87
-5.61
-6.17
-6.55
-6.78
-6.90
-6.96
-7.04
-7.22
-7.59
-8.18
-8.96
-9.80
-10.61
-11.32
-12.00
-12.78
-13.76
-14.93
-16.09
-16.95
-17.26
-16.88
-15.92
-14.73
-13.84
-13.77
-14.82
-16.98
-19.82
-22.66
-24.91
-26.41
-27.59
-29.36
-32.64
-37.75
-44.14
-50.39
-54.84
-56.34
-54.82
-51.38
-47.83
-45.96
-46.88
-50.84
-57.46
-66.05
-75.69
-85.19
-92.66
-95.78
-92.13
-79.95
-58.66
-28.78
8.88
54.08
107.33
168.73
236.13
303.85
363.15
404.79
422.40
415.15
387.85
348.63
305.38
262.88
221.88
180.37
135.89
87.61
37.19
-11.85
-55.44
-90.43
-115.45
-131.08
-139.23
-142.24
-141.80
-138.68
-132.93
-124.69
-114.87
-105.15
-97.37
-92.49
-90.00
-88.06
-84.44
-77.66
-67.72
-56.05
-44.90
-36.35
-31.56
-30.37
-31.60
-33.56
-34.81
-34.55
-32.77
-30.01
-27.03
-24.36
-22.17
-20.29
-18.40
-16.27
-13.91
-11.48
-9.30
-7.59
-6.41
-5.63
-4.98
-4.25
-3.33
-2.31
-1.43
-0.90
-0.87
-1.27
-1.85
-2.33
-2.48
-2.22
-1.67
-1.07
-0.69
-0.70
-1.05
-1.55
-1.94
-2.02
-1.74
-1.21
-0.62
-0.16
0.06
0.05
-0.12
-0.34
-0.54
-0.65
-0.69
-0.67
-0.60
-0.50
-0.39
-0.28
-0.23
-0.29
-0.50
-0.86
-1.28
-1.61
-1.67
-1.36
-0.70
0.15
0.97
1.53
1.74
1.64
1.36
1.07
0.85
0.69
0.48
0.14
-0.33
-0.83
-1.16
-1.20
-0.94
-0.48
-0.02
0.30
0.41
0.34
0.18
0.00
-0.16
-0.33
-0.48
-0.57
-0.53
-0.28
0.16
0.71
1.19
1.43
1.33
0.90
0.27
-0.38
-0.83
-1.00
-0.88
-0.59
-0.26
-0.02
0.11
0.18
0.23
0.28
0.31
0.27
0.16
0.03
-0.02
0.07
0.26
0.46
0.57
0.53
0.34
0.07
-0.18
-0.37
-0.43
-0.35
-0.13
0.15
0.39
0.49
0.38
0.11
-0.21
-0.45
-0.51
-0.42
-0.25
-0.13
-0.13
-0.25
-0.39
-0.44
-0.33
-0.05
0.33
0.72
1.01
1.12
1.03
0.79
0.46
0.13
-0.18
-0.45
-0.69
-0.92
-1.09
-1.19
-1.21
-1.16
-1.07
-0.97
-0.90
-0.84
-0.78
-0.73
-0.68
-0.66
-0.69
-0.76
-0.84
-0.83
-0.68
-0.33
0.22
0.92
1.62
2.19
2.48
2.47
2.21
1.79
1.31
0.85
0.41
0.05
-0.19
-0.23
-0.10
0.12
0.26
0.21
-0.05
-0.38
-0.58
-0.51
-0.14
0.37
0.82
1.01
0.92
0.62
0.25
-0.05
-0.20
-0.20
-0.07
0.13
0.32
0.45
0.45
0.31
0.07
-0.19
-0.38
-0.47
-0.44
-0.33
-0.16
0.02
0.16
0.20
0.10
-0.16
-0.58
-1.05
-1.49
-1.79
-1.89
-1.79
-1.52
-1.14
-0.72
-0.33
-0.05
0.09
0.10
0.06
0.10
0.30
0.73
1.32
1.94
2.40
2.54
2.33
1.86
1.32
0.91
0.75
0.78
0.88
0.87
0.69
0.37
0.06
-0.07
0.09
0.55
1.17
1.78
2.18
2.24
2.00
1.57
1.13
0.84
0.72
0.73
0.80
0.92
1.11
1.44
1.91
2.40
2.75
2.80
2.54
2.08
1.61
1.25
1.03
0.89
0.77
0.67
0.63
0.71
0.94
1.25
1.54
1.70
1.67
1.41
0.96
0.41
-0.13
-0.51
-0.68
-0.64
-0.52
-0.48
-0.65
-1.00
-1.40
-1.63
-1.49
-0.93
-0.01
1.08
2.09
2.80
3.12
3.07
2.81
2.55
2.45
2.57
2.89
3.30
3.73
4.21
4.81
5.63
6.71
8.01
9.37
10.64
11.69
12.50
13.16
13.83
14.73
16.04
17.81
19.89
21.81
22.92
22.50
20.03
15.46
9.21
2.12
-4.89
-11.07
-16.02
-19.66
-22.14
-23.65
-24.36
-24.39
-23.90
-23.02
-21.82
-20.29
-18.26
-15.61
-12.32
-8.65
-5.02
-1.92
0.32
1.62
2.13
2.06
1.55
0.68
-0.54
-2.01
-3.56
-4.97
-6.04
-6.67
-6.90
-6.77
-6.36
-5.65
-4.62
-3.30
-1.82
-0.38
0.76
1.43
1.54
1.16
0.46
-0.33
-1.03
-1.51
-1.76
-1.87
-1.96
-2.12
-2.37
-2.59
-2.57
-2.09
-1.02
0.63
2.64
4.69
6.49
7.88
8.87
9.60
10.19
10.61
10.68
10.20
9.02
7.22
5.00
2.57
-0.03
-2.96
-6.48
-10.69
-15.48
-20.40
-24.96
-28.79
-31.88
-34.51
-37.13
-40.04
-43.22
-46.36
-49.02
-50.88
-51.91
-52.41
-52.80
-53.52
-54.82
-56.68
-58.84
-60.93
-62.59
-63.59
-63.99
-64.14
-64.61
-65.89
-68.25
-71.58
-75.51
-79.75
-84.24
-89.25
-95.26
-102.71
-111.96
-123.26
-136.80
-152.52
-169.68
-186.51
-200.28
-207.97
-207.28
-197.53
-179.78
-156.21
-129.04
-99.68
-68.63
-35.95
-1.91
32.65
66.59
99.14
130.53
162.30
196.98
237.46
285.94
342.78
405.53
468.60
524.22
564.38
583.42
579.93
557.14
521.42
479.76
437.37
396.57
357.38
318.98
281.09
244.44
210.10
178.57
149.14
120.09
89.50
56.07
19.42
-19.97
-61.18
-102.97
-143.67
-181.03
-212.39
-235.30
-248.36
-251.71
-247.03
-236.90
-223.85
-209.81
-195.92
-182.84
-171.04
-160.85
-152.32
-144.98
-137.92
-130.19
-121.23
-111.19
-100.81
-91.10
-82.91
-76.54
-71.70
-67.67
-63.64
-59.00
-53.56
-47.54
-41.51
-36.03
-31.53
-28.07
-25.45
-23.29
-21.24
-19.15
-17.02
-14.96
-13.09
-11.46
-10.04
-8.77
-7.61
-6.51
-5.50
-4.59
-3.86
-3.35
-3.09
-3.05
-3.12
-3.16
-3.05
-2.72
-2.22
-1.66
-1.16
-0.79
-0.56
-0.42
-0.34
-0.28
-0.24
-0.19
-0.13
-0.02
0.13
0.29
0.40
0.41
0.33
0.21
0.18
0.30
0.55
0.86
1.08
1.12
0.97
0.71
0.50
0.42
0.47
0.57
0.62
0.55
0.34
0.08
-0.15
-0.29
-0.31
-0.27
-0.23
-0.24
-0.33
-0.49
-0.69
-0.87
-0.99
-1.06
-1.08
-1.07
-1.02
-0.89
-0.68
-0.39
-0.11
0.09
0.15
0.07
-0.06
-0.15
-0.11
0.09
0.41
0.78
1.15
1.44
1.62
1.66
1.49
1.12
0.57
-0.05
-0.58
-0.88
-0.87
-0.62
-0.29
-0.06
-0.05
-0.23
-0.45
-0.55
-0.45
-0.18
0.12
0.29
0.25
0.03
-0.26
-0.46
-0.48
-0.29
0.06
0.45
0.73
0.83
0.74
0.52
0.29
0.18
0.22
0.39
0.61
0.81
0.96
1.02
0.98
0.81
0.51
0.13
-0.22
-0.41
-0.40
-0.28
-0.20
-0.30
-0.56
-0.82
-0.85
-0.49
0.22
1.06
1.78
2.15
2.16
1.89
1.51
1.14
0.84
0.61
0.45
0.39
0.46
0.64
0.88
1.07
1.12
0.96
0.66
0.31
0.06
-0.02
0.06
0.20
0.27
0.22
0.05
-0.16
-0.29
-0.32
-0.31
-0.36
-0.50
-0.75
-0.99
-1.14
-1.15
-1.05
-0.92
-0.83
-0.81
-0.86
-0.97
-1.09
-1.23
-1.35
-1.40
-1.35
-1.17
-0.93
-0.69
-0.56
-0.58
-0.75
-1.00
-1.23
-1.36
-1.35
-1.20
-0.97
-0.71
-0.51
-0.41
-0.35
-0.25
-0.02
0.35
0.77
1.07
1.15
1.01
0.76
0.56
0.54
0.66
0.76
0.67
0.35
-0.13
-0.61
-0.91
-0.99
-0.88
-0.65
-0.36
-0.04
0.28
0.53
0.62
0.48
0.12
-0.34
-0.78
-1.09
-1.28
-1.38
-1.43
-1.41
-1.24
-0.86
-0.28
0.39
0.95
1.25
1.23
0.92
0.47
0.07
-0.14
-0.09
0.17
0.48
0.69
0.69
0.50
0.21
-0.06
-0.23
-0.33
-0.39
-0.44
-0.42
-0.25
0.16
0.75
1.41
1.97
2.31
2.42
2.37
2.30
2.28
2.34
2.44
2.48
2.41
2.19
1.85
1.43
0.98
0.51
0.02
-0.49
-0.95
-1.28
-1.42
-1.38
-1.26
-1.24
-1.42
-1.79
-2.20
-2.43
-2.34
-1.94
-1.40
-0.91
-0.61
-0.49
-0.45
-0.37
-0.19
0.06
0.32
0.53
0.66
0.68
0.58
0.33
-0.02
-0.43
-0.83
-1.14
-1.36
-1.49
-1.56
-1.55
-1.46
-1.25
-0.92
-0.55
-0.21
0.00
0.03
-0.13
-0.43
-0.75
-0.98
-1.02
-0.82
-0.37
0.23
0.87
1.42
1.77
1.87
1.77
1.52
1.23
0.98
0.80
0.72
0.68
0.62
0.51
0.31
0.04
-0.27
-0.54
-0.71
-0.73
-0.62
-0.46
-0.36
-0.41
-0.60
-0.83
-0.96
-0.89
-0.62
-0.29
-0.07
-0.09
-0.38
-0.83
-1.25
-1.50
-1.52
-1.35
-1.09
-0.83
-0.61
-0.46
-0.31
-0.14
0.04
0.19
0.25
0.21
0.09
-0.03
-0.05
0.05
0.26
0.48
0.62
0.62
0.50
0.37
0.33
0.44
0.66
0.90
1.03
0.97
0.71
0.31
-0.11
-0.43
-0.60
-0.61
-0.52
-0.42
-0.35
-0.32
-0.28
-0.20
-0.03
0.20
0.46
0.66
0.75
0.69
0.50
0.24
-0.03
-0.27
-0.48
-0.68
-0.88
-1.08
-1.26
-1.36
-1.39
-1.39
-1.38
-1.40
-1.43
-1.42
-1.37
-1.29
-1.23
-1.23
-1.28
-1.31
-1.26
-1.08
-0.78
-0.45
-0.19
-0.08
-0.15
-0.35
-0.60
-0.76
-0.71
-0.38
0.24
1.05
1.89
2.55
2.91
2.95
2.76
2.55
2.49
2.66
3.00
3.34
3.46
3.26
2.75
2.07
1.44
0.99
0.78
0.77
0.84
0.93
0.95
0.88
0.71
0.44
0.09
-0.29
-0.65
-0.92
-1.06
-1.07
-1.00
-0.88
-0.76
-0.67
-0.58
-0.48
-0.36
-0.29
-0.30
-0.43
-0.61
-0.73
-0.68
-0.45
-0.10
0.25
0.47
0.52
0.45
0.34
0.25
0.23
0.25
0.31
0.41
0.56
0.74
0.84
0.81
0.59
0.19
-0.28
-0.71
-0.96
-1.00
-0.83
-0.52
-0.18
0.10
0.27
0.35
0.40
0.48
0.61
0.72
0.73
0.54
0.15
-0.37
-0.89
-1.28
-1.47
-1.45
-1.25
-0.94
-0.56
-0.16
0.25
0.63
0.92
1.06
0.99
0.72
0.33
-0.05
-0.30
-0.41
-0.42
-0.40
-0.45
-0.55
-0.64
-0.66
-0.58
-0.41
-0.20
-0.01
0.16
0.31
0.46
0.60
0.69
0.72
0.69
0.61
0.50
0.39
0.32
0.28
0.27
0.26
0.19
0.06
-0.12
-0.30
-0.44
-0.49
-0.46
-0.35
-0.19
-0.01
0.13
0.13
-0.04
-0.40
-0.88
-1.34
-1.63
-1.66
-1.43
-1.07
-0.70
-0.43
-0.26
-0.14
0.02
0.30
0.65
1.01
1.26
1.36
1.33
1.27
1.27
1.39
1.56
1.67
1.61
1.37
1.02
0.72
0.59
0.66
0.85
1.00
0.99
0.77
0.43
0.12
-0.06
-0.07
-0.01
0.02
-0.09
-0.33
-0.62
-0.86
-0.97
-0.94
-0.81
-0.68
-0.65
-0.78
-1.06
-1.44
-1.85
-2.20
-2.44
-2.55
-2.56
-2.50
-2.41
-2.31
-2.18
-1.98
-1.72
-1.45
-1.24
-1.16
-1.20
-1.27
-1.21
-0.92
-0.36
0.36
1.13
1.84
2.46
3.01
3.49
3.80
3.83
3.48
2.80
1.95
1.18
0.68
0.50
0.53
0.63
0.66
0.54
0.30
-0.01
-0.33
-0.63
-0.88
-1.06
-1.17
-1.21
-1.21
-1.22
-1.26
-1.32
-1.37
-1.33
-1.21
-0.99
-0.73
-0.49
-0.32
-0.21
-0.13
-0.04
0.10
0.28
0.43
0.54
0.58
0.59
0.62
0.68
0.70
0.56
0.13
-0.66
-1.72
-2.85
-3.80
-4.37
-4.52
-4.33
-4.01
-3.78
-3.80
-4.11
-4.63
-5.19
-5.63
-5.83
-5.76
-5.47
-5.02
-4.48
-3.91
-3.35
-2.87
-2.55
-2.50
-2.80
-3.45
-4.39
-5.51
-6.66
-7.75
-8.71
-9.55
-10.31
-11.07
-11.87
-12.78
-13.81
-15.01
-16.37
-17.92
-19.64
-21.46
-23.27
-24.86
-26.01
-26.55
-26.43
-25.77
-24.74
-23.55
-22.31
-20.99
-19.51
-17.81
-15.89
-13.75
-11.28
-8.27
-4.44
0.33
5.82
11.44
16.51
20.45
23.14
24.83
25.97
26.94
27.97
29.08
30.33
31.82
33.72
36.06
38.65
41.11
43.07
44.39
45.29
46.22
47.56
49.40
51.42
53.07
53.86
53.60
52.45
50.83
49.17
47.68
46.25
44.51
41.99
38.33
33.42
27.41
20.67
13.59
6.43
-0.78
-8.11
-15.60
-23.06
-30.02
-35.87
-40.06
-42.38
-43.06
-42.57
-41.41
-39.87
-37.97
-35.55
-32.54
-29.09
-25.55
-22.38
-19.93
-18.32
-17.39
-16.81
-16.22
-15.37
-14.18
-12.73
-11.20
-9.77
-8.54
-7.45
-6.41
-5.27
-3.98
-2.58
-1.19
0.04
0.98
1.56
1.78
1.67
1.30
0.75
0.17
-0.24
-0.33
0.00
0.68
1.46
2.10
2.38
2.23
1.79
1.26
0.82
0.53
0.34
0.16
-0.05
-0.26
-0.41
-0.43
-0.36
-0.29
-0.30
-0.41
-0.57
-0.72
-0.83
-0.93
-1.08
-1.33
-1.63
-1.88
-1.96
-1.84
-1.60
-1.37
-1.29
-1.37
-1.56
-1.74
-1.81
-1.74
-1.57
-1.34
-1.06
-0.73
-0.30
0.23
0.84
1.41
1.81
1.95
1.79
1.40
0.87
0.35
-0.07
-0.35
-0.49
-0.49
-0.38
-0.16
0.15
0.48
0.74
0.84
0.74
0.45
0.07
-0.25
-0.37
-0.17
0.36
1.12
1.96
2.67
3.11
3.20
2.99
2.59
2.17
1.85
1.71
1.73
1.85
1.95
1.94
1.74
1.40
0.96
0.52
0.11
-0.28
-0.68
-1.11
-1.52
-1.83
-1.96
-1.88
-1.61
-1.27
-0.97
-0.79
-0.76
-0.86
-1.04
-1.24
-1.43
-1.61
-1.82
-2.06
-2.31
-2.53
-2.64
-2.59
-2.32
-1.82
-1.13
-0.34
0.41
0.99
1.29
1.29
1.02
0.59
0.12
-0.32
-0.67
-0.91
-1.02
-0.97
-0.78
-0.52
-0.29
-0.21
-0.33
-0.60
-0.92
-1.18
-1.33
-1.41
-1.52
-1.70
-1.93
-2.13
-2.25
-2.30
-2.37
-2.63
-3.15
-3.98
-4.99
-6.00
-6.84
-7.39
-7.67
-7.80
-7.94
-8.27
-8.85
-9.72
-10.89
-12.33
-13.98
-15.71
-17.23
-18.22
-18.35
-17.45
-15.65
-13.30
-10.91
-8.96
-7.78
-7.47
-7.97
-9.10
-10.69
-12.61
-14.76
-17.02
-19.19
-20.94
-21.85
-21.53
-19.72
-16.56
-12.52
-8.38
-4.89
-2.58
-1.67
-2.17
-4.05
-7.38
-12.26
-18.60
-25.93
-33.37
-39.91
-44.81
-47.94
-49.93
-51.86
-54.81
-59.44
-65.73
-73.04
-80.22
-85.76
-87.86
-84.62
-74.34
-56.03
-29.88
2.49
38.16
73.51
105.00
129.96
147.02
156.20
158.54
155.76
149.73
142.19
134.57
127.90
122.81
119.54
118.00
117.68
117.77
117.31
115.52
111.98
106.76
100.15
92.48
83.84
74.03
62.68
49.38
33.88
16.27
-2.90
-22.50
-40.90
-56.27
-67.10
-72.72
-73.58
-71.09
-66.99
-62.74
-59.08
-56.02
-53.20
-50.35
-47.43
-44.63
-42.13
-39.94
-37.90
-35.74
-33.31
-30.61
-27.86
-25.34
-23.27
-21.65
-20.31
-18.94
-17.32
-15.46
-13.55
-11.89
-10.71
-10.02
-9.66
-9.38
-9.00
-8.43
-7.74
-7.00
-6.30
-5.65
-5.08
-4.59
-4.16
-3.78
-3.41
-3.01
-2.59
-2.18
-1.84
-1.61
-1.48
-1.43
-1.40
-1.37
-1.34
-1.36
-1.42
-1.54
-1.67
-1.82
-1.94
-2.01
-2.00
-1.89
-1.69
-1.44
-1.22
-1.10
-1.09
-1.15
-1.18
-1.07
-0.77
-0.29
0.29
0.82
1.22
1.40
1.42
1.38
1.44
1.68
2.13
2.66
3.09
3.23
3.03
2.57
2.03
1.59
1.37
1.40
1.62
1.94
2.29
2.58
2.73
2.64
2.29
1.67
0.88
0.03
-0.78
-1.48
-2.04
-2.42
-2.62
-2.64
-2.51
-2.33
-2.21
-2.24
-2.43
-2.77
-3.17
-3.56
-3.86
-4.02
-4.04
-3.93
-3.72
-3.48
-3.26
-3.11
-3.04
-2.99
-2.93
-2.83
-2.70
-2.58
-2.50
-2.50
-2.54
-2.64
-2.79
-2.98
-3.19
-3.35
-3.35
-3.10
-2.57
-1.83
-1.04
-0.37
0.04
0.19
0.13
-0.05
-0.24
-0.36
-0.35
-0.19
0.12
0.53
0.96
1.33
1.55
1.64
1.63
1.59
1.57
1.52
1.39
1.12
0.70
0.20
-0.27
-0.58
-0.68
-0.55
-0.27
0.05
0.33
0.51
0.63
0.78
1.00
1.31
1.63
1.83
1.80
1.49
0.98
0.40
-0.13
-0.54
-0.81
-0.99
-1.08
-1.05
-0.86
-0.52
-0.10
0.27
0.46
0.39
0.10
-0.30
-0.68
-0.95
-1.05
-1.01
-0.82
-0.50
-0.10
0.31
0.59
0.68
0.56
0.35
0.19
0.20
0.38
0.65
0.82
0.80
0.57
0.24
-0.06
-0.26
-0.39
-0.51
-0.70
-0.98
-1.29
-1.54
-1.68
-1.70
-1.62
-1.52
-1.45
-1.43
-1.48
-1.60
-1.78
-2.05
-2.39
-2.82
-3.35
-3.97
-4.69
-5.48
-6.29
-7.05
-7.75
-8.42
-9.14
-10.02
-11.10
-12.34
-13.65
-14.94
-16.20
-17.50
-18.96
-20.65
-22.56
-24.58
-26.57
-28.50
-30.46
-32.65
-35.31
-38.55
-42.26
-46.08
-49.59
-52.43
-54.54
-56.25
-58.12
-60.76
-64.52
-69.33
-74.78
-80.28
-85.46
-90.34
-95.37
-101.20
-108.37
-116.94
-126.46
-136.20
-145.54
-154.23
-162.30
-169.62
-175.37
-177.83
-174.73
-164.03
-144.88
-118.08
-85.96
-51.54
-17.40
15.02
45.76
75.99
107.41
141.83
181.09
226.97
280.68
341.76
406.93
469.70
521.57
554.49
563.76
549.75
517.57
474.84
428.73
383.82
341.70
301.96
263.86
227.19
192.19
158.82
126.07
91.96
54.24
11.49
-35.94
-85.45
-132.59
-172.39
-200.98
-216.99
-221.90
-219.32
-213.31
-206.82
-200.78
-194.49
-186.75
-177.04
-166.01
-155.10
-145.56
-137.71
-130.74
-123.28
-114.19
-103.26
-91.23
-79.50
-69.36
-61.48
-55.74
-51.46
-47.84
-44.31
-40.70
-37.08
-33.58
-30.20
-26.85
-23.36
-19.64
-15.73
-11.77
-8.04
-4.86
-2.52
-1.19
-0.73
-0.77
-0.73
-0.09
1.41
3.65
6.17
8.40
9.91
10.53
10.33
9.51
8.27
6.75
5.07
3.35
1.77
0.54
-0.21
-0.44
-0.22
0.30
1.01
1.84
2.73
3.66
4.58
5.49
6.45
7.53
8.73
9.90
10.79
11.13
10.84
10.05
9.03
7.95
6.77
5.23
3.09
0.40
-2.45
-4.85
-6.31
-6.71
-6.33
-5.69
-5.27
-5.21
-5.30
-5.15
-4.41
-3.01
-1.17
0.67
2.15
3.10
3.64
4.09
4.78
5.89
7.45
9.34
11.38
13.49
15.66
17.95
20.24
22.12
22.84
21.56
17.64
11.04
2.39
-7.12
-16.20
-23.77
-29.28
-32.65
-34.15
-34.19
-33.25
-31.85
-30.52
-29.69
-29.51
-29.86
-30.37
-30.70
-30.74
-30.59
-30.53
-30.79
-31.51
-32.72
-34.32
-36.09
-37.54
-37.99
-36.72
-33.31
-27.97
-21.50
-15.01
-9.36
-4.76
-0.86
2.92
6.87
10.80
14.17
16.56
18.01
19.16
20.89
23.89
28.32
33.73
39.31
44.14
47.59
49.37
49.55
48.46
46.54
44.12
41.37
38.29
34.81
30.96
26.90
22.93
19.35
16.39
14.08
12.27
10.72
9.15
7.38
5.34
3.14
0.97
-0.97
-2.59
-3.97
-5.30
-6.74
-8.31
-9.90
-11.30
-12.38
-13.11
-13.63
-14.07
-14.49
-14.83
-14.96
-14.74
-14.08
-12.96
-11.44
-9.58
-7.53
-5.44
-3.53
-2.00
-0.98
-0.48
-0.46
-0.76
-1.22
-1.70
-2.13
-2.50
-2.85
-3.21
-3.59
-3.85
-3.85
-3.53
-2.95
-2.32
-1.84
-1.61
-1.54
-1.45
-1.18
-0.72
-0.20
0.21
0.39
0.36
0.20
-0.01
-0.21
-0.42
-0.63
-0.82
-0.99
-1.11
-1.22
-1.35
-1.43
-1.35
-1.02
-0.41
0.35
1.02
1.42
1.48
1.32
1.11
0.99
0.99
1.01
0.91
0.64
0.22
-0.22
-0.55
-0.69
-0.62
-0.40
-0.08
0.29
0.63
0.92
1.13
1.25
1.35
1.49
1.75
2.14
2.62
3.10
3.56
4.00
4.51
5.17
6.00
6.92
7.75
8.25
8.24
7.68
6.69
5.51
4.43
3.61
3.12
2.86
2.74
2.64
2.51
2.30
1.89
1.11
-0.16
-1.92
-3.91
-5.75
-7.02
-7.54
-7.44
-7.04
-6.71
-6.67
-6.86
-7.10
-7.23
-7.21
-7.13
-7.11
-7.14
-7.07
-6.70
-5.96
-5.01
-4.17
-3.78
-4.00
-4.73
-5.68
-6.53
-7.11
-7.42
-7.54
-7.60
-7.61
-7.55
-7.36
-7.01
-6.48
-5.72
-4.64
-3.17
-1.37
0.60
2.43
3.82
4.60
4.80
4.62
4.34
4.19
4.28
4.55
4.88
5.12
5.19
5.10
4.96
4.86
4.83
4.83
4.74
4.50
4.12
3.66
3.21
2.77
2.28
1.67
0.93
0.14
-0.58
-1.10
-1.39
-1.52
-1.59
-1.68
-1.83
-2.01
-2.21
-2.37
-2.47
-2.52
-2.53
-2.58
-2.80
-3.35
-4.27
-5.50
-6.80
-7.88
-8.46
-8.43
-7.83
-6.83
-5.65
-4.55
-3.78
-3.54
-3.98
-5.04
-6.44
-7.66
-8.20
-7.78
-6.58
-5.18
-4.39
-4.80
-6.55
-9.25
-12.14
-14.39
-15.38
-14.81
-12.78
-9.63
-5.94
-2.42
0.24
1.48
1.06
-0.85
-3.77
-7.12
-10.47
-13.73
-17.15
-21.12
-25.87
-31.26
-36.68
-41.22
-44.07
-44.84
-43.83
-41.92
-40.25
-39.78
-40.82
-42.95
-45.15
-46.29
-45.53
-42.68
-38.18
-33.05
-28.44
-25.24
-23.64
-22.88
-21.23
-16.27
-5.68
11.79
35.37
61.98
86.93
105.40
114.19
112.87
103.76
90.75
77.60
66.69
58.65
52.96
48.83
45.82
43.92
43.01
42.53
41.53
39.11
34.99
29.75
24.57
20.68
18.78
18.83
20.16
21.94
23.54
24.78
25.83
27.05
28.78
31.14
34.09
37.45
40.91
43.99
46.03
46.17
43.58
37.77
28.68
16.71
2.47
-13.35
-29.95
-46.26
-60.85
-72.15
-78.90
-80.66
-78.07
-72.61
-65.97
-59.35
-52.92
-45.96
-37.37
-26.36
-13.05
1.42
15.15
26.02
32.29
33.06
28.48
19.71
8.46
-3.41
-14.38
-23.49
-30.37
-35.07
-37.83
-38.96
-38.73
-37.42
-35.49
-33.52
-32.14
-31.82
-32.70
-34.55
-36.86
-39.04
-40.59
-41.18
-40.68
-39.18
-37.04
-34.88
-33.48
-33.43
-34.80
-36.94
-38.65
-38.59
-35.94
-30.76
-24.04
-17.41
-12.49
-10.33
-10.92
-13.07
-14.56
-12.63
-4.87
9.90
30.82
54.96
78.00
95.53
104.50
104.12
95.85
82.60
67.65
53.66
42.33
34.45
30.18
29.22
30.84
33.85
36.92
38.88
39.22
38.24
36.87
36.12
36.59
38.18
40.19
41.74
42.24
41.69
40.82
40.81
42.94
48.07
56.13
65.90
75.16
81.20
81.70
75.63
63.78
48.59
33.28
20.59
11.70
5.92
1.20
-4.76
-13.35
-24.52
-36.99
-49.00
-59.33
-67.71
-74.79
-81.47
-88.18
-94.53
-99.48
-101.98
-101.64
-98.91
-94.83
-90.33
-85.72
-80.45
-73.56
-64.36
-52.99
-40.50
-28.42
-18.08
-10.09
-4.17
0.42
4.47
8.37
12.04
15.11
17.22
18.35
18.90
19.60
21.21
24.23
28.61
33.74
38.56
42.01
43.30
42.27
39.40
35.54
31.64
28.30
25.71
23.68
21.88
20.10
18.30
16.57
15.00
13.57
12.16
10.67
9.06
7.43
5.93
4.74
3.97
3.60
3.51
3.46
3.11
2.19
0.55
-1.69
-4.17
-6.43
-8.09
-9.06
-9.54
-9.91
-10.47
-11.26
-12.03
-12.34
-11.81
-10.32
-8.10
-5.62
-3.43
-1.87
-1.03
-0.70
-0.54
-0.24
0.38
1.34
2.57
3.96
5.35
6.61
7.54
7.94
7.74
7.01
6.11
5.48
5.51
6.29
7.46
8.36
8.29
6.85
4.08
0.48
-3.31
-6.74
-9.56
-11.78
-13.52
-14.81
-15.57
-15.68
-15.11
-14.00
-12.61
-11.21
-9.94
-8.76
-7.56
-6.28
-5.00
-3.90
-3.18
-2.85
-2.79
-2.77
-2.61
-2.31
-2.03
-1.97
-2.27
-2.90
-3.70
-4.43
-4.90
-4.99
-4.66
-3.91
-2.75
-1.20
0.69
2.84
5.16
7.49
9.64
11.39
12.55
12.95
12.54
11.34
9.41
6.85
3.80
0.47
-2.82
-5.66
-7.61
-8.40
-8.02
-6.76
-5.13
-3.66
-2.77
-2.58
-2.97
-3.62
-4.23
-4.59
-4.67
-4.53
-4.30
-4.08
-3.86
-3.60
-3.23
-2.67
-1.91
-1.00
-0.04
0.85
1.60
2.20
2.75
3.45
4.50
6.00
7.91
9.98
11.86
13.32
14.36
15.27
16.52
18.56
21.59
25.50
29.89
34.21
37.94
40.73
42.54
43.71
44.97
47.25
51.43
58.00
66.94
77.64
89.18
100.77
112.10
123.49
135.93
150.71
168.95
190.97
215.95
241.87
265.96
285.56
299.04
306.19
308.12
306.52
302.87
297.84
291.39
283.16
272.91
260.67
246.65
230.87
213.12
193.10
170.82
146.82
122.18
98.08
75.41
54.30
34.18
14.04
-7.03
-29.37
-52.68
-76.16
-98.89
-120.34
-140.55
-160.16
-180.24
-202.11
-226.97
-255.36
-286.56
-318.24
-346.58
-367.37
-377.38
-375.62
-363.66
-344.91
-323.19
-301.31
-280.48
-260.66
-241.39
-222.55
-204.51
-187.89
-172.93
-159.37
-146.53
-133.80
-120.94
-108.20
-96.18
-85.51
-76.55
-69.19
-62.92
-57.07
-51.09
-44.80
-38.48
-32.71
-28.09
-24.95
-23.23
-22.45
-21.94
-21.08
-19.51
-17.19
-14.34
-11.31
-8.40
-5.73
-3.27
-0.92
1.38
3.55
5.38
6.62
7.09
6.77
5.84
4.57
3.25
2.08
1.15
0.39
-0.24
-0.81
-1.23
-1.40
-1.17
-0.55
0.32
1.17
1.74
1.89
1.59
1.00
0.28
-0.35
-0.75
-0.83
-0.56
-0.02
0.65
1.24
1.53
1.36
0.65
-0.56
-2.08
-3.61
-4.85
-5.54
-5.55
-4.94
-3.88
-2.60
-1.28
-0.09
0.93
1.75
2.39
2.92
3.44
4.07
4.92
6.08
7.52
9.18
10.85
12.30
13.22
13.36
12.57
10.89
8.57
5.99
3.53
1.47
-0.10
-1.26
-2.21
-3.16
-4.32
-5.81
-7.63
-9.62
-11.51
-12.96
-13.71
-13.70
-13.08
-12.19
-11.32
-10.66
-10.19
-9.80
-9.40
-9.00
-8.77
-8.93
-9.63
-10.88
-12.50
-14.24
-15.76
-16.80
-17.26
-17.20
-16.93
-16.83
-17.24
-18.24
-19.54
-20.40
-19.91
-17.38
-12.65
-6.34
0.36
6.00
9.44
10.12
8.27
4.90
1.65
0.49
3.11
10.35
21.68
35.15
48.00
57.53
62.07
61.34
56.24
48.19
38.34
27.42
15.90
4.42
-6.04
-14.39
-19.83
-22.35
-22.72
-22.20
-21.98
-22.67
-24.09
-25.43
-25.67
-24.19
-21.13
-17.47
-14.60
-13.73
-15.30
-18.68
-22.57
-25.51
-26.69
-26.31
-25.37
-25.20
-26.77
-30.28
-35.17
-40.46
-45.24
-48.99
-51.70
-53.80
-55.88
-58.50
-62.02
-66.37
-71.12
-75.62
-79.21
-81.58
-83.03
-84.46
-87.34
-93.52
-104.92
-123.12
-148.71
-180.65
-215.95
-250.13
-278.41
-297.26
-305.58
-304.92
-298.55
-289.93
-281.33
-273.28
-264.98
-255.18
-242.99
-228.19
-211.10
-192.15
-171.69
-149.93
-127.04
-103.25
-78.74
-53.75
-28.47
-3.06
22.27
47.34
71.98
96.12
119.87
143.46
167.36
192.34
219.45
249.66
283.13
318.44
352.31
380.13
397.36
401.18
391.65
371.69
345.85
318.58
292.78
269.30
247.51
226.38
205.39
184.77
165.22
147.38
131.37
116.88
103.47
90.86
79.20
68.95
60.58
54.17
49.23
44.89
40.18
34.54
28.06
21.44
15.64
11.41
8.94
7.82
7.29
6.58
5.29
3.47
1.53
-0.05
-0.95
-1.17
-0.99
-0.75
-0.72
-0.98
-1.41
-1.82
-2.06
-2.13
-2.14
-2.25
-2.50
-2.86
-3.14
-3.19
-2.92
-2.38
-1.70
-1.01
-0.39
0.15
0.64
1.07
1.41
1.55
1.43
1.05
0.51
-0.04
-0.45
-0.63
-0.59
-0.42
-0.23
-0.12
-0.13
-0.23
-0.35
-0.48
-0.63
-0.84
-1.17
-1.58
-1.98
-2.23
-2.24
-2.01
-1.65
-1.30
-1.10
-1.09
-1.22
-1.37
-1.41
-1.28
-0.98
-0.57
-0.12
0.28
0.57
0.70
0.65
0.45
0.19
-0.04
-0.16
-0.17
-0.12
-0.11
-0.20
-0.40
-0.68
-0.96
-1.19
-1.33
-1.38
-1.39
-1.37
-1.35
-1.34
-1.37
-1.45
-1.59
-1.79
-1.99
-2.16
-2.25
-2.23
-2.10
-1.91
-1.69
-1.51
-1.39
-1.32
-1.30
-1.32
-1.41
-1.62
-2.05
-2.67
-3.46
-4.30
-5.05
-5.65
-6.11
-6.49
-6.87
-7.28
-7.67
-7.94
-7.97
-7.63
-6.86
-5.72
-4.35
-2.96
-1.81
-1.08
-0.86
-1.16
-1.98
-3.33
-5.15
-7.29
-9.38
-10.92
-11.48
-10.95
-9.62
-8.11
-7.05
-6.71
-6.92
-7.17
-7.01
-6.41
-5.81
-5.83
-6.92
-9.03
-11.56
-13.71
-14.81
-14.53
-12.80
-9.55
-4.54
2.54
11.66
21.99
31.92
39.59
43.65
44.01
41.84
38.97
36.93
36.20
36.09
35.38
33.14
29.23
24.28
19.09
14.15
9.58
5.43
2.10
0.30
0.71
3.42
7.66
12.05
15.27
16.63
16.35
15.21
14.00
13.08
12.27
11.21
9.72
8.11
7.02
7.01
8.15
9.89
11.26
11.35
9.72
6.71
3.28
0.48
-1.04
-1.35
-1.13
-1.19
-2.14
-4.39
-8.34
-14.59
-23.80
-36.16
-51.07
-67.18
-82.95
-97.60
-111.54
-125.79
-140.85
-155.85
-168.73
-177.61
-182.28
-184.38
-186.06
-187.95
-187.70
-180.49
-161.43
-128.31
-82.74
-29.35
26.38
79.86
127.94
168.09
197.89
215.32
220.10
214.79
204.37
194.26
187.67
184.55
182.73
180.55
179.25
182.93
195.99
219.80
250.70
281.11
302.98
311.61
307.28
294.19
277.47
260.22
242.64
223.18
200.97
177.15
154.59
135.70
120.14
103.71
79.23
39.65
-18.09
-90.15
-165.30
-227.42
-260.63
-254.61
-208.57
-132.09
-42.06
42.68
106.69
141.67
147.47
131.05
103.86
78.41
64.78
67.93
86.62
114.47
142.78
163.92
173.71
171.79
160.28
141.72
117.94
90.06
59.41
28.53
0.47
-22.60
-40.76
-56.78
-75.15
-100.09
-133.92
-175.89
-221.89
-265.61
-300.20
-320.38
-324.27
-313.96
-294.69
-272.73
-252.97
-237.25
-224.56
-212.49
-199.24
-184.89
-171.12
-159.85
-151.76
-145.73
-139.49
-131.14
-120.37
-108.52
-97.83
-90.04
-85.55
-83.46
-82.21
-80.48
-77.74
-74.16
-70.14
-65.90
-61.07
-54.88
-46.65
-36.41
-24.98
-13.47
-2.42
8.82
21.89
38.33
58.30
79.88
99.52
113.41
118.81
114.69
101.44
80.12
52.26
20.26
-11.97
-39.19
-56.30
-60.53
-53.06
-39.47
-27.97
-26.44
-39.44
-65.96
-99.03
-127.38
-139.10
-126.32
-88.94
-35.80
17.53
53.74
59.45
29.39
-32.48
-115.07
-204.04
-286.03
-351.64
-396.57
-421.25
-429.27
-425.56
-414.82
-400.66
-385.50
-370.77
-357.12
-344.48
-332.00
-317.79
-299.63
-275.87
-246.39
-212.93
-178.53
-146.46
-119.07
-96.86
-78.52
-61.62
-43.63
-22.93
0.72
26.23
51.75
75.57
96.77
115.54
132.96
150.51
169.46
190.61
214.32
240.73
269.76
300.71
331.76
359.73
380.67
391.09
389.35
376.40
355.43
330.53
305.24
281.52
259.82
239.78
221.12
203.98
188.76
175.63
164.26
153.92
143.90
133.85
123.89
114.41
105.78
98.11
91.19
84.73
78.50
72.45
66.73
61.55
57.13
53.60
51.03
49.48
48.96
49.44
50.85
53.10
56.07
59.80
64.49
70.37
77.68
86.55
97.11
109.77
125.38
145.08
169.83
199.50
232.42
265.48
295.00
318.09
333.60
342.24
345.86
346.31
344.50
340.31
333.04
322.22
308.01
291.13
272.39
252.31
230.90
207.90
183.23
157.25
130.78
104.93
80.72
58.66
38.63
19.96
1.70
-16.96
-36.36
-56.39
-76.50
-96.02
-114.50
-131.94
-148.94
-166.74
-186.94
-210.87
-238.73
-268.99
-298.47
-323.44
-341.11
-350.75
-353.60
-351.79
-346.92
-339.56
-329.83
-318.56
-307.83
-300.31
-297.59
-298.96
-301.46
-301.27
-295.68
-284.07
-267.06
-244.65
-215.11
-176.02
-126.87
-71.68
-19.41
19.10
35.94
30.07
7.74
-20.66
-45.78
-63.57
-76.16
-89.10
-107.01
-129.89
-152.52
-166.74
-165.12
-143.90
-103.62
-48.21
16.29
82.71
143.06
188.85
212.29
208.92
180.38
135.11
85.91
44.76
17.59
2.11
-9.57
-25.26
-47.38
-71.12
-87.20
-86.77
-65.87
-27.19
21.52
70.34
109.79
132.88
136.03
119.99
89.82
53.56
19.43
-7.31
-25.75
-37.98
-46.34
-50.94
-49.74
-40.56
-23.94
-4.19
12.24
19.98
17.53
7.71
-4.15
-13.41
-18.28
-20.28
-22.65
-28.00
-36.82
-46.99
-54.67
-56.08
-49.21
-34.69
-15.76
2.94
17.22
24.86
26.37
24.34
21.97
21.51
23.36
26.32
28.56
28.89
27.37
25.09
23.41
23.05
23.76
24.54
24.34
22.64
19.62
16.09
13.02
11.18
10.81
11.62
12.95
14.02
14.11
12.81
10.10
6.39
2.32
-1.34
-4.05
-5.61
-6.24
-6.45
-6.80
-7.65
-9.02
-10.48
-11.37
-10.94
-8.75
-4.86
0.05
4.79
8.10
9.14
7.89
5.23
2.55
1.14
1.64
3.74
6.43
8.36
8.36
5.79
0.71
-6.03
-12.79
-17.29
-17.11
-10.37
3.23
21.70
40.82
55.26
60.63
55.22
40.82
21.77
3.06
-11.84
-21.92
-28.28
-32.76
-36.66
-40.17
-42.83
-44.41
-45.35
-46.59
-48.78
-51.82
-54.75
-56.46
-56.36
-54.71
-52.40
-50.47
-49.56
-49.71
-50.55
-51.53
-52.25
-52.56
-52.52
-52.42
-52.67
-53.74
-56.13
-60.30
-66.64
-75.48
-87.12
-102.09
-121.14
-145.03
-173.87
-206.48
-240.06
-270.64
-294.26
-308.42
-312.93
-309.84
-302.30
-293.09
-283.53
-273.29
-261.21
-246.32
-228.61
-208.93
-188.48
-167.94
-147.18
-125.42
-101.78
-75.86
-48.06
-19.56
8.30
34.44
58.55
81.12
103.21
126.01
150.58
177.78
208.15
241.63
276.98
311.43
340.96
361.26
369.24
364.31
348.59
326.14
301.36
277.48
255.98
236.88
219.59
203.71
189.24
176.28
164.65
153.72
142.66
130.95
118.65
106.36
95.01
85.28
77.34
70.74
64.70
58.49
51.78
44.77
37.98
32.01
27.18
23.48
20.63
18.23
15.97
13.66
11.26
8.78
6.33
4.03
2.11
0.73
-0.02
-0.24
-0.13
0.04
0.07
-0.06
-0.26
-0.41
-0.42
-0.31
-0.13
0.05
0.17
0.21
0.13
-0.10
-0.53
-1.13
-1.84
-2.53
-3.06
-3.37
-3.44
-3.36
-3.21
-3.07
-2.96
-2.88
-2.83
-2.82
-2.85
-2.90
-2.90
-2.81
-2.61
-2.35
-2.14
-2.04
-2.01
-1.93
-1.68
-1.24
-0.72
-0.32
-0.23
-0.46
-0.86
-1.15
-1.14
-0.77
-0.16
0.49
1.03
1.40
1.63
1.76
1.78
1.69
1.48
1.27
1.18
1.36
1.83
2.48
3.13
3.58
3.74
3.62
3.29
2.89
2.53
2.32
2.37
2.76
3.50
4.54
5.75
6.97
8.05
8.86
9.33
9.38
8.96
8.10
6.88
5.38
3.69
1.83
-0.22
-2.46
-4.71
-6.69
-8.05
-8.56
-8.25
-7.37
-6.31
-5.35
-4.65
-4.18
-3.86
-3.70
-3.78
-4.17
-4.86
-5.67
-6.31
-6.54
-6.25
-5.50
-4.55
-3.67
-3.06
-2.82
-2.95
-3.33
-3.82
-4.25
-4.45
-4.32
-3.86
-3.19
-2.50
-2.01
-1.83
-1.96
-2.26
-2.54
-2.62
-2.43
-1.96
-1.26
-0.40
0.54
1.40
2.01
2.23
1.99
1.32
0.41
-0.53
-1.31
-1.81
-2.03
-2.01
-1.80
-1.47
-1.08
-0.72
-0.45
-0.30
-0.25
-0.23
-0.17
-0.05
0.11
0.22
0.19
-0.02
-0.34
-0.63
-0.73
-0.54
-0.04
0.62
1.25
1.65
1.69
1.37
0.82
0.23
-0.21
-0.35
-0.15
0.35
1.00
1.58
1.87
1.69
1.03
-0.01
-1.14
-2.09
-2.63
-2.69
-2.36
-1.86
-1.41
-1.17
-1.19
-1.45
-1.88
-2.42
-2.97
-3.41
-3.63
-3.48
-2.91
-1.98
-0.87
0.19
1.00
1.46
1.60
1.51
1.30
1.03
0.66
0.12
-0.71
-1.82
-3.10
-4.33
-5.21
-5.58
-5.40
-4.83
-4.11
-3.48
-3.08
-2.93
-3.00
-3.21
-3.52
-3.89
-4.27
-4.55
-4.65
-4.49
-4.07
-3.42
-2.62
-1.72
-0.76
0.22
1.15
1.93
2.42
2.57
2.38
1.97
1.50
1.12
0.89
0.78
0.67
0.45
0.13
-0.20
-0.36
-0.13
0.66
2.00
3.76
5.72
7.57
9.07
10.08
10.55
10.53
10.13
9.48
8.68
7.81
6.94
6.11
5.38
4.77
4.29
3.94
3.68
3.45
3.25
3.04
2.82
2.62
2.40
2.17
1.91
1.63
1.34
1.07
0.81
0.57
0.32
0.07
-0.14
-0.30
-0.39
-0.45
-0.53
-0.70
-0.94
-1.22
-1.44
-1.55
-1.51
-1.35
-1.09
-0.80
-0.49
-0.19
0.09
0.33
0.45
0.40
0.15
-0.30
-0.86
-1.42
-1.87
-2.15
-2.25
-2.23
-2.18
-2.14
-2.14
-2.14
-2.04
-1.79
-1.32
-0.65
0.11
0.79
1.23
1.31
1.06
0.65
0.32
0.25
0.50
0.98
1.46
1.74
1.71
1.42
1.04
0.75
0.69
0.86
1.17
1.52
1.79
1.96
2.01
1.91
1.64
1.17
0.51
-0.25
-0.93
-1.39
-1.51
-1.32
-0.91
-0.47
-0.15
-0.06
-0.23
-0.60
-1.09
-1.56
-1.90
-2.02
-1.93
-1.66
-1.33
-1.05
-0.92
-0.95
-1.05
-1.08
-0.94
-0.57
-0.02
0.58
1.08
1.40
1.54
1.54
1.47
1.29
0.92
0.30
-0.56
-1.51
-2.36
-2.92
-3.12
-3.01
-2.72
-2.39
-2.09
-1.82
-1.55
-1.24
-0.89
-0.56
-0.32
-0.24
-0.36
-0.65
-1.02
-1.36
-1.53
-1.49
-1.25
-0.89
-0.51
-0.21
-0.01
0.06
0.04
-0.04
-0.16
-0.27
-0.35
-0.41
-0.46
-0.56
-0.69
-0.81
-0.85
-0.73
-0.44
-0.08
0.22
0.34
0.19
-0.18
-0.63
-0.99
-1.11
-0.94
-0.56
-0.10
0.29
0.53
0.64
0.74
0.94
1.30
1.75
2.11
2.23
2.03
1.55
0.94
0.39
0.03
-0.09
-0.01
0.21
0.50
0.82
1.09
1.25
1.21
0.93
0.46
-0.07
-0.47
-0.60
-0.42
-0.02
0.46
0.85
1.04
1.00
0.77
0.40
-0.07
-0.56
-1.01
-1.32
-1.42
-1.30
-1.01
-0.65
-0.34
-0.17
-0.13
-0.14
-0.07
0.16
0.52
0.90
1.12
1.06
0.72
0.22
-0.25
-0.55
-0.63
-0.59
-0.56
-0.63
-0.81
-0.99
-1.06
-0.94
-0.63
-0.24
0.07
0.21
0.13
-0.11
-0.40
-0.66
-0.90
-1.17
-1.50
-1.89
-2.24
-2.40
-2.24
-1.76
-1.04
-0.26
0.43
0.91
1.19
1.31
1.34
1.34
1.33
1.32
1.27
1.16
0.97
0.74
0.55
0.48
0.57
0.77
0.97
1.05
0.94
0.67
0.34
0.07
-0.09
-0.17
-0.25
-0.39
-0.57
-0.73
-0.78
-0.70
-0.55
-0.46
-0.51
-0.71
-0.95
-1.07
-0.99
-0.69
-0.25
0.20
0.57
0.86
1.12
1.41
1.68
1.86
1.85
1.61
1.19
0.72
0.29
-0.07
-0.37
-0.67
-1.00
-1.30
-1.46
-1.38
-1.04
-0.53
-0.02
0.30
0.32
0.06
-0.33
-0.65
-0.74
-0.55
-0.19
0.17
0.36
0.30
0.04
-0.28
-0.51
-0.56
-0.40
-0.09
0.30
0.71
1.06
1.33
1.48
1.48
1.34
1.07
0.73
0.38
0.05
-0.24
-0.51
-0.71
-0.81
-0.76
-0.53
-0.15
0.28
0.65
0.87
0.88
0.73
0.47
0.17
-0.13
-0.42
-0.68
-0.88
-0.98
-0.89
-0.64
-0.31
-0.06
-0.02
-0.26
-0.69
-1.13
-1.39
-1.35
-1.03
-0.51
0.07
0.62
1.07
1.37
1.48
1.38
1.09
0.73
0.46
0.38
0.50
0.66
0.66
0.37
-0.17
-0.73
-1.06
-0.97
-0.51
0.07
0.40
0.16
-0.85
-2.65
-5.13
-8.09
-11.21
-14.08
-16.19
-17.01
-16.22
-13.82
-10.22
-6.12
-2.27
0.80
2.97
4.43
5.41
5.99
5.93
4.93
2.91
0.30
-2.03
-3.12
-2.43
-0.16
2.84
5.52
7.17
7.79
7.97
8.47
9.74
11.67
13.65
15.00
15.26
14.42
12.83
10.96
9.20
7.70
6.46
5.42
4.48
3.62
2.78
1.91
0.95
-0.15
-1.37
-2.63
-3.85
-4.95
-5.89
-6.66
-7.35
-8.10
-9.12
-10.67
-12.93
-15.92
-19.43
-23.01
-26.13
-28.36
-29.54
-29.77
-29.35
-28.54
-27.43
-25.97
-24.06
-21.78
-19.47
-17.70
-17.03
-17.80
-19.88
-22.72
-25.46
-27.18
-27.16
-25.01
-20.69
-14.43
-6.57
2.54
12.60
23.21
33.79
43.49
51.41
56.93
60.03
61.37
61.91
62.44
63.12
63.44
62.50
59.46
53.89
45.65
34.69
20.85
4.07
-15.24
-35.79
-55.48
-71.95
-83.53
-89.94
-92.41
-92.92
-92.89
-92.06
-88.26
-78.41
-60.26
-33.98
-2.63
28.96
56.05
75.62
86.98
91.00
88.88
81.40
68.96
52.45
33.84
16.15
2.39
-5.64
-8.04
-6.56
-3.63
-1.26
-0.42
-0.96
-2.11
-3.01
-3.12
-2.38
-1.06
0.41
1.70
2.71
3.61
4.57
5.69
6.87
7.83
8.33
8.23
7.67
6.90
6.23
5.85
5.76
5.79
5.65
5.08
3.97
2.41
0.67
-0.86
-1.83
-2.10
-1.73
-0.99
-0.18
0.46
0.88
1.16
1.44
1.79
2.19
2.52
2.68
2.60
2.27
1.81
1.32
0.93
0.70
0.63
0.67
0.74
0.81
0.86
0.93
1.02
1.09
1.09
0.99
0.81
0.67
0.71
1.02
1.62
2.37
3.09
3.59
3.79
3.74
3.60
3.58
3.83
4.34
4.93
5.33
5.34
4.93
4.33
3.92
4.06
4.90
6.26
7.78
9.03
9.75
9.87
9.50
8.90
8.38
8.39
9.56
12.66
18.40
27.18
38.81
52.36
66.38
79.22
89.57
96.74
100.73
102.00
101.10
98.55
94.73
90.26
86.17
83.81
84.49
88.96
97.18
108.44
121.93
137.30
154.81
174.82
196.87
219.14
238.52
251.66
256.28
252.23
241.52
227.34
212.60
198.69
185.24
170.70
153.48
132.88
109.40
84.30
58.87
33.81
8.99
-16.24
-42.61
-70.70
-100.89
-133.39
-168.12
-204.31
-240.01
-272.05
-296.73
-310.95
-313.44
-305.42
-290.00
-271.05
-251.74
-233.74
-217.33
-202.14
-187.99
-175.26
-164.61
-156.43
-150.34
-145.25
-139.79
-133.02
-124.78
-115.79
-107.20
-99.89
-94.09
-89.29
-84.64
-79.53
-73.98
-68.65
-64.38
-61.57
-59.88
-58.26
-55.52
-50.86
-44.38
-36.97
-29.94
-24.43
-20.94
-19.20
-18.41
-17.68
-16.30
-13.92
-10.50
-6.16
-1.17
3.97
8.63
12.12
14.15
15.07
15.88
17.79
21.63
27.18
33.26
38.16
40.58
40.16
37.61
34.26
31.38
29.83
29.95
31.81
35.36
40.41
46.42
52.41
57.13
59.53
59.15
56.27
51.70
46.25
40.25
33.51
25.61
16.39
6.38
-3.30
-11.39
-17.08
-20.32
-21.82
-22.50
-22.93
-23.05
-22.32
-20.21
-16.66
-12.25
-7.93
-4.50
-2.20
-0.65
0.93
3.25
6.54
10.54
14.64
18.17
20.56
21.49
20.81
18.54
14.94
10.53
6.06
2.29
-0.31
-1.79
-2.72
-3.96
-6.24
-9.74
-14.09
-18.45
-21.95
-24.02
-24.53
-23.75
-22.14
-20.11
-17.95
-15.82
-13.81
-12.10
-10.84
-10.16
-10.01
-10.15
-10.27
-10.08
-9.50
-8.67
-7.87
-7.33
-7.15
-7.22
-7.32
-7.28
-7.05
-6.70
-6.31
-5.92
-5.50
-4.98
-4.38
-3.83
-3.47
-3.35
-3.32
-3.07
-2.30
-0.90
0.97
2.97
4.74
6.07
6.97
7.51
7.70
7.43
6.56
5.06
3.16
1.27
-0.14
-0.79
-0.67
-0.03
0.81
1.61
2.32
3.02
3.81
4.81
5.97
7.16
8.13
8.70
8.76
8.38
7.78
7.26
7.04
7.17
7.45
7.57
7.24
6.37
5.09
3.69
2.49
1.70
1.34
1.27
1.30
1.24
1.00
0.57
-0.01
-0.68
-1.42
-2.18
-2.96
-3.68
-4.28
-4.74
-5.09
-5.44
-5.92
-6.57
-7.36
-8.13
-8.69
-8.98
-9.03
-8.97
-8.97
-9.16
-9.58
-10.19
-10.99
-11.92
-12.97
-14.07
-15.11
-15.97
-16.62
-17.19
-17.91
-19.09
-20.95
-23.52
-26.62
-29.99
-33.40
-36.78
-40.26
-44.05
-48.35
-53.24
-58.63
-64.39
-70.41
-76.78
-83.70
-91.46
-100.19
-109.60
-118.95
-127.37
-134.34
-140.22
-146.27
-153.97
-163.99
-175.41
-185.62
-191.26
-189.66
-179.90
-163.20
-142.18
-119.42
-96.39
-72.93
-47.55
-18.31
16.60
58.70
109.47
170.24
241.29
320.42
401.93
476.96
535.62
570.25
578.05
561.96
528.99
487.25
442.99
399.34
356.81
314.92
273.52
233.10
194.15
156.27
117.80
76.35
30.14
-20.78
-73.82
-124.11
-166.05
-195.15
-209.72
-211.41
-204.34
-193.35
-182.17
-172.44
-163.85
-155.29
-146.03
-136.28
-126.99
-119.13
-112.98
-107.97
-103.03
-97.18
-90.04
-81.99
-73.88
-66.65
-60.83
-56.41
-52.89
-49.55
-45.76
-41.26
-36.20
-31.03
-26.26
-22.25
-19.07
-16.51
-14.22
-11.89
-9.44
-6.98
-4.79
-3.09
-1.98
-1.31
-0.86
-0.39
0.23
0.97
1.70
2.27
2.59
2.65
2.50
2.22
1.87
1.52
1.20
0.89
0.59
0.25
-0.13
-0.52
-0.89
-1.15
-1.26
-1.14
-0.80
-0.25
0.40
1.03
1.47
1.61
1.37
0.83
0.13
-0.55
-1.09
-1.46
-1.74
-2.07
-2.51
-3.05
-3.54
-3.92
-4.21
-4.52
-5.08
-6.00
-7.28
-8.73
-10.14
-11.36
-12.39
-13.36
-14.47
-15.82
-17.47
-19.34
-21.31
-23.26
-25.08
-26.76
-28.38
-30.10
-32.10
-34.48
-37.15
-39.85
-42.17
-43.75
-44.33
-43.79
-42.10
-39.26
-35.20
-29.84
-23.20
-15.49
-7.25
0.66
7.07
10.74
10.60
6.14
-2.37
-13.87
-26.76
-39.35
-50.46
-59.80
-68.02
-76.53
-87.13
-101.54
-120.94
-145.46
-173.87
-203.54
-230.97
-252.77
-266.66
-272.13
-270.26
-262.96
-251.92
-237.95
-221.05
-200.95
-177.64
-151.62
-123.51
-93.52
-61.23
-25.68
14.18
59.01
108.88
163.00
219.43
275.02
325.60
366.79
395.23
409.74
411.59
404.00
390.82
375.31
359.54
344.64
331.63
322.05
317.91
320.90
331.28
347.09
364.45
378.67
385.85
384.13
374.12
358.21
339.27
319.41
299.39
278.83
256.99
233.44
208.32
182.16
155.35
127.94
99.76
70.63
40.73
10.62
-18.93
-47.30
-74.34
-100.58
-127.25
-155.97
-187.99
-223.28
-259.88
-293.99
-320.95
-336.85
-339.97
-331.46
-314.72
-294.02
-272.88
-253.23
-235.45
-219.10
-203.78
-189.46
-176.42
-164.78
-154.28
-144.28
-134.19
-123.75
-113.20
-103.18
-94.39
-87.20
-81.48
-76.57
-71.57
-65.73
-58.73
-50.77
-42.46
-34.51
-27.38
-21.21
-15.80
-10.79
-5.88
-0.95
3.89
8.34
12.08
14.84
16.57
17.43
17.76
17.92
18.12
18.29
18.18
17.50
16.12
14.17
11.95
9.80
7.85
6.02
4.08
1.85
-0.64
-3.13
-5.31
-6.90
-7.82
-8.17
-8.10
-7.77
-7.29
-6.71
-6.11
-5.61
-5.34
-5.32
-5.53
-5.85
-6.18
-6.42
-6.56
-6.60
-6.51
-6.24
-5.73
-4.97
-4.00
-2.94
-1.94
-1.11
-0.49
-0.04
0.35
0.78
1.29
1.87
2.40
2.77
2.90
2.83
2.69
2.66
2.83
3.20
3.59
3.82
3.74
3.35
2.81
2.32
2.03
1.95
2.00
2.07
2.11
2.14
2.24
2.46
2.79
3.15
3.43
3.59
3.60
3.50
3.32
3.04
2.61
2.00
1.26
0.52
-0.05
-0.33
-0.29
-0.05
0.24
0.40
0.39
0.25
0.10
0.08
0.24
0.52
0.78
0.86
0.65
0.18
-0.37
-0.77
-0.79
-0.37
0.40
1.30
2.04
2.46
2.45
2.08
1.43
0.65
-0.13
-0.82
-1.34
-1.66
-1.80
-1.80
-1.74
-1.64
-1.49
-1.28
-1.06
-0.90
-0.92
-1.17
-1.59
-2.00
-2.19
-2.02
-1.52
-0.89
-0.37
-0.17
-0.35
-0.80
-1.33
-1.75
-1.96
-1.94
-1.74
-1.44
-1.11
-0.82
-0.65
-0.68
-0.99
-1.58
-2.41
-3.31
-4.11
-4.62
-4.79
-4.68
-4.51
-4.48
-4.69
-5.03
-5.16
-4.70
-3.35
-1.06
2.00
5.51
9.14
12.62
15.70
18.11
19.56
19.81
18.78
16.61
13.65
10.34
7.09
4.15
1.61
-0.55
-2.39
-3.98
-5.29
-6.31
-7.05
-7.60
-8.14
-8.84
-9.78
-10.92
-12.04
-12.79
-12.86
-12.03
-10.29
-7.82
-4.96
-2.16
0.10
1.45
1.71
0.90
-0.70
-2.70
-4.70
-6.35
-7.42
-7.80
-7.52
-6.72
-5.59
-4.32
-3.02
-1.74
-0.44
0.85
2.02
2.84
3.11
2.83
2.31
2.18
3.11
5.45
9.00
12.91
16.01
17.27
16.22
13.10
8.70
4.01
-0.19
-3.50
-5.88
-7.40
-8.10
-7.96
-6.97
-5.29
-3.24
-1.21
0.50
1.77
2.69
3.41
4.05
4.62
5.03
5.22
5.18
5.00
4.86
4.92
5.32
6.09
7.09
8.09
8.75
8.78
8.03
6.64
4.92
3.33
2.17
1.54
1.32
1.24
1.07
0.69
0.08
-0.69
-1.54
-2.43
-3.28
-4.02
-4.55
-4.82
-4.80
-4.57
-4.22
-3.87
-3.61
-3.46
-3.48
-3.69
-4.06
-4.58
-5.14
-5.67
-6.08
-6.32
-6.41
-6.39
-6.30
-6.14
-5.86
-5.33
-4.49
-3.30
-1.85
-0.33
1.03
2.03
2.60
2.75
2.61
2.27
1.85
1.36
0.83
0.27
-0.30
-0.85
-1.42
-2.02
-2.69
-3.34
-3.85
-4.12
-4.16
-4.11
-4.22
-4.76
-5.83
-7.38
-9.16
-10.85
-12.24
-13.29
-14.13
-15.04
-16.21
-17.69
-19.37
-21.01
-22.48
-23.86
-25.45
-27.63
-30.67
-34.54
-38.94
-43.47
-47.85
-52.09
-56.49
-61.46
-67.36
-74.29
-82.17
-90.68
-99.51
-108.36
-117.07
-125.64
-134.21
-143.14
-153.02
-164.63
-178.75
-195.72
-215.03
-235.01
-253.14
-266.75
-273.90
-274.05
-268.09
-257.82
-245.09
-231.04
-215.98
-199.55
-181.27
-160.93
-138.65
-114.76
-89.61
-63.44
-36.51
-9.07
18.52
45.89
72.78
99.26
125.91
153.63
183.31
215.10
247.95
279.64
307.40
328.83
342.76
349.41
349.96
345.78
337.75
326.11
310.76
291.59
268.74
242.66
214.02
183.80
153.42
124.65
99.35
78.85
63.56
52.89
45.73
40.90
37.59
35.23
33.31
31.20
28.26
24.22
19.42
14.75
11.16
9.13
8.38
8.08
7.35
5.73
3.37
0.89
-1.11
-2.28
-2.72
-2.81
-2.94
-3.34
-4.04
-4.87
-5.65
-6.21
-6.49
-6.51
-6.35
-6.13
-5.95
-5.85
-5.78
-5.59
-5.17
-4.46
-3.49
-2.31
-0.95
0.59
2.29
4.07
5.71
6.90
7.36
6.96
5.79
4.14
2.39
0.90
-0.15
-0.68
-0.78
-0.59
-0.32
-0.10
-0.03
-0.16
-0.51
-1.06
-1.82
-2.78
-3.91
-5.14
-6.44
-7.78
-9.25
-10.88
-12.65
-14.33
-15.55
-15.96
-15.40
-14.07
-12.46
-11.18
-10.70
-11.16
-12.37
-13.90
-15.20
-15.72
-14.89
-12.31
-7.86
-1.89
4.71
10.71
14.90
16.52
15.50
12.48
8.53
4.78
2.04
0.62
0.34
0.71
1.15
1.18
0.63
-0.40
-1.70
-3.14
-4.78
-6.85
-9.46
-12.37
-14.94
-16.35
-15.95
-13.64
-9.85
-5.32
-0.69
3.66
7.64
11.20
14.14
16.11
16.82
16.34
15.11
13.82
13.09
13.12
13.64
14.07
13.85
12.71
10.91
9.12
8.14
8.50
10.20
12.62
14.86
16.20
16.39
15.72
14.58
13.18
11.30
8.48
4.45
-0.60
-5.97
-10.70
-13.94
-15.18
-14.31
-11.58
-7.50
-2.79
1.72
5.29
7.48
8.29
8.13
7.59
7.11
6.83
6.64
6.34
5.89
5.41
5.21
5.61
6.87
9.13
12.32
16.25
20.57
24.84
28.52
31.03
31.80
30.43
26.93
21.82
16.13
11.08
7.71
6.44
6.92
8.21
9.14
8.82
6.91
3.62
-0.39
-4.36
-7.56
-9.43
-9.64
-8.20
-5.45
-2.08
1.07
3.25
4.09
3.80
3.11
3.20
5.67
12.39
25.17
45.22
72.35
104.41
137.37
166.37
187.29
198.38
200.76
197.85
193.74
191.68
193.24
198.32
205.91
214.63
223.03
229.65
233.05
232.10
226.47
216.77
204.20
190.01
174.84
158.55
140.54
120.31
97.87
73.70
48.49
22.72
-3.45
-30.19
-57.88
-87.07
-118.40
-152.38
-188.91
-226.58
-262.46
-292.45
-312.53
-320.24
-315.69
-301.57
-282.01
-260.90
-240.69
-222.02
-204.45
-187.51
-171.34
-156.61
-143.91
-133.18
-123.58
-113.98
-103.67
-92.73
-82.04
-72.70
-65.44
-60.25
-56.40
-52.87
-48.77
-43.72
-37.96
-32.08
-26.81
-22.66
-19.75
-17.86
-16.53
-15.25
-13.65
-11.63
-9.27
-6.86
-4.71
-3.05
-1.95
-1.38
-1.13
-0.98
-0.74
-0.30
0.35
1.14
1.95
2.67
3.21
3.51
3.53
3.25
2.74
2.08
1.44
0.96
0.74
0.79
1.06
1.39
1.61
1.64
1.49
1.35
1.43
1.95
2.99
4.48
6.20
7.83
9.07
9.67
9.49
8.51
6.85
4.73
2.44
0.32
-1.39
-2.60
-3.42
-4.05
-4.67
-5.33
-5.93
-6.29
-6.36
-6.21
-6.05
-6.04
-6.13
-6.11
-5.70
-4.74
-3.36
-1.89
-0.68
0.02
0.23
0.12
-0.10
-0.30
-0.46
-0.61
-0.75
-0.85
-0.83
-0.63
-0.23
0.34
1.05
1.81
2.53
3.16
3.65
3.99
4.24
4.46
4.70
4.96
5.19
5.31
5.23
4.92
4.43
3.90
3.44
3.15
3.01
2.93
2.75
2.36
1.74
1.03
0.41
0.06
0.05
0.30
0.64
0.91
1.02
1.05
1.20
1.70
2.66
4.03
5.55
6.83
7.55
7.61
7.26
7.04
7.59
9.36
12.36
16.03
19.48
21.92
23.01
23.12
23.22
24.40
27.42
32.22
38.00
43.49
47.53
49.61
50.11
50.15
51.24
54.90
62.23
73.42
87.38
101.36
111.14
111.83
99.45
72.71
34.15
-10.20
-52.58
-86.09
-106.92
-115.17
-113.93
-107.36
-98.86
-90.14
-81.56
-73.08
-65.08
-58.43
-53.99
-51.84
-51.00
-49.77
-46.61
-40.93
-33.38
-25.54
-19.19
-15.45
-14.39
-15.10
-16.16
-16.29
-14.90
-12.18
-8.97
-6.26
-4.71
-4.42
-4.91
-5.42
-5.31
-4.35
-2.79
-1.16
-0.03
0.28
-0.20
-1.14
-2.07
-2.63
-2.61
-2.05
-1.19
-0.33
0.27
0.46
0.29
-0.14
-0.66
-1.11
-1.35
-1.18
-0.45
0.86
2.54
4.14
5.14
5.21
4.36
2.99
1.68
0.87
0.74
1.14
1.76
2.36
2.84
3.22
3.52
3.69
3.59
3.10
2.20
0.94
-0.54
-2.06
-3.48
-4.68
-5.59
-6.16
-6.39
-6.31
-5.92
-5.23
-4.26
-3.10
-1.95
-1.02
-0.50
-0.47
-0.86
-1.48
-2.12
-2.60
-2.84
-2.82
-2.59
-2.19
-1.67
-1.12
-0.61
-0.23
-0.01
0.05
-0.01
-0.16
-0.36
-0.61
-0.91
-1.21
-1.43
-1.52
-1.43
-1.17
-0.76
-0.26
0.26
0.71
1.01
1.10
1.01
0.83
0.69
0.73
0.96
1.30
1.60
1.68
1.49
1.08
0.59
0.16
-0.14
-0.33
-0.48
-0.67
-0.89
-1.07
-1.12
-1.00
-0.76
-0.52
-0.38
-0.39
-0.54
-0.75
-0.90
-0.93
-0.82
-0.59
-0.34
-0.13
-0.00
0.08
0.18
0.34
0.59
0.89
1.17
1.37
1.48
1.51
1.46
1.33
1.06
0.64
0.12
-0.37
-0.70
-0.78
-0.67
-0.48
-0.37
-0.46
-0.70
-0.96
-1.05
-0.84
-0.30
0.46
1.24
1.86
2.19
2.23
2.05
1.77
1.46
1.22
1.10
1.14
1.35
1.69
2.06
2.34
2.43
2.26
1.88
1.36
0.79
0.26
-0.11
-0.22
-0.00
0.58
1.46
2.42
3.18
3.51
3.34
2.79
2.17
1.78
1.80
2.25
2.97
3.79
4.58
5.29
5.87
6.24
6.26
5.76
4.68
3.09
1.21
-0.72
-2.53
-4.18
-5.71
-7.14
-8.42
-9.42
-10.01
-10.16
-9.99
-9.71
-9.51
-9.47
-9.45
-9.20
-8.43
-7.00
-5.00
-2.73
-0.60
1.03
1.98
2.27
2.06
1.53
0.81
-0.04
-1.00
-1.98
-2.80
-3.25
-3.19
-2.64
-1.77
-0.87
-0.17
0.25
0.48
0.68
1.01
1.50
2.08
2.58
2.85
2.86
2.67
2.40
2.16
1.99
1.87
1.74
1.58
1.41
1.28
1.21
1.20
1.19
1.13
1.03
0.90
0.78
0.69
0.60
0.47
0.26
-0.03
-0.36
-0.65
-0.83
-0.90
-0.90
-0.95
-1.17
-1.63
-2.27
-2.91
-3.30
-3.26
-2.75
-1.94
-1.09
-0.46
-0.18
-0.18
-0.27
-0.21
0.19
1.04
2.34
4.06
6.07
8.17
10.07
11.49
12.19
12.10
11.32
10.06
8.59
7.11
5.75
4.56
3.57
2.77
2.14
1.62
1.12
0.59
0.00
-0.61
-1.21
-1.76
-2.28
-2.79
-3.27
-3.67
-3.87
-3.79
-3.40
-2.77
-2.05
-1.40
-0.98
-0.86
-1.04
-1.44
-1.97
-2.48
-2.90
-3.24
-3.51
-3.73
-3.88
-3.88
-3.63
-3.10
-2.36
-1.61
-1.06
-0.83
-0.92
-1.15
-1.29
-1.14
-0.61
0.22
1.21
2.11
2.78
3.08
2.98
2.52
1.76
0.79
-0.28
-1.34
-2.26
-2.88
-3.10
-2.88
-2.30
-1.51
-0.78
-0.29
-0.14
-0.32
-0.72
-1.18
-1.51
-1.59
-1.38
-0.92
-0.37
0.10
0.33
0.28
0.02
-0.32
-0.58
-0.66
-0.58
-0.36
-0.06
0.28
0.64
0.96
1.18
1.22
1.04
0.66
0.17
-0.35
-0.84
-1.25
-1.54
-1.67
-1.56
-1.18
-0.60
0.00
0.42
0.50
0.24
-0.20
-0.58
-0.73
-0.67
-0.54
-0.56
-0.86
-1.32
-1.72
-1.78
-1.38
-0.56
0.42
1.25
1.69
1.67
1.25
0.64
0.04
-0.40
-0.58
-0.48
-0.12
0.48
1.26
2.13
2.92
3.41
3.41
2.80
1.72
0.51
-0.40
-0.66
-0.18
0.80
1.85
2.51
2.60
2.21
1.66
1.33
1.39
1.77
2.21
2.42
2.23
1.67
0.95
0.37
0.16
0.39
0.95
1.54
1.87
1.72
1.14
0.34
-0.37
-0.75
-0.79
-0.61
-0.43
-0.41
-0.57
-0.83
-1.09
-1.35
-1.67
-2.16
-2.81
-3.49
-4.00
-4.16
-3.90
-3.34
-2.66
-2.06
-1.64
-1.36
-1.12
-0.80
-0.38
0.07
0.41
0.49
0.27
-0.22
-0.77
-1.17
-1.27
-1.07
-0.68
-0.32
-0.15
-0.24
-0.49
-0.76
-0.92
-0.99
-1.06
-1.26
-1.60
-1.97
-2.16
-1.96
-1.35
-0.48
0.35
0.84
0.84
0.41
-0.24
-0.84
-1.17
-1.18
-0.99
-0.77
-0.71
-0.88
-1.20
-1.50
-1.58
-1.31
-0.74
-0.04
0.58
0.95
1.10
1.16
1.35
1.78
2.45
3.21
3.87
4.28
4.41
4.34
4.16
3.93
3.63
3.19
2.58
1.81
1.02
0.37
-0.03
-0.17
-0.15
-0.09
-0.05
-0.06
-0.07
-0.08
-0.10
-0.23
-0.51
-0.96
-1.54
-2.18
-2.82
-3.36
-3.68
-3.64
-3.11
-2.08
-0.70
0.77
2.01
2.79
3.05
2.84
2.30
1.57
0.79
0.03
-0.63
-1.13
-1.40
-1.44
-1.30
-1.05
-0.81
-0.62
-0.47
-0.30
-0.01
0.41
0.94
1.48
1.91
2.15
2.15
1.93
1.53
1.00
0.38
-0.29
-0.95
-1.56
-2.06
-2.40
-2.54
-2.42
-2.06
-1.53
-0.97
-0.52
-0.27
-0.19
-0.15
0.02
0.42
1.09
1.91
2.78
3.61
4.37
5.01
5.48
5.67
5.47
4.83
3.79
2.51
1.21
0.12
-0.58
-0.85
-0.79
-0.55
-0.33
-0.27
-0.40
-0.67
-0.95
-1.11
-1.11
-0.93
-0.63
-0.27
0.11
0.45
0.71
0.86
0.89
0.82
0.66
0.43
0.10
-0.29
-0.70
-1.03
-1.20
-1.16
-0.98
-0.76
-0.62
-0.63
-0.79
-1.08
-1.43
-1.83
-2.23
-2.58
-2.80
-2.78
-2.47
-1.92
-1.26
-0.64
-0.20
0.02
0.05
-0.03
-0.16
-0.30
-0.42
-0.47
-0.39
-0.13
0.31
0.82
1.27
1.49
1.44
1.12
0.61
-0.03
-0.78
-1.59
-2.41
-3.15
-3.69
-3.92
-3.85
-3.53
-3.07
-2.59
-2.14
-1.75
-1.42
-1.12
-0.84
-0.60
-0.48
-0.53
-0.80
-1.23
-1.70
-2.01
-1.99
-1.55
-0.71
0.42
1.68
2.89
3.90
4.58
4.88
4.82
4.48
3.98
3.45
2.99
2.62
2.34
2.16
2.10
2.19
2.41
2.64
2.68
2.35
1.56
0.47
-0.63
-1.40
-1.61
-1.29
-0.68
-0.13
0.09
-0.07
-0.48
-0.92
-1.24
-1.36
-1.36
-1.28
-1.15
-0.94
-0.59
-0.09
0.48
1.04
1.47
1.72
1.75
1.58
1.26
0.84
0.42
0.05
-0.19
-0.28
-0.24
-0.12
0.06
0.27
0.53
0.79
1.02
1.14
1.11
0.91
0.60
0.26
-0.05
-0.25
-0.37
-0.41
-0.39
-0.37
-0.38
-0.47
-0.68
-1.00
-1.37
-1.70
-1.88
-1.86
-1.66
-1.34
-1.01
-0.73
-0.56
-0.50
-0.54
-0.61
-0.65
-0.60
-0.44
-0.22
0.00
0.15
0.22
0.29
0.49
0.89
1.47
2.06
2.47
2.54
2.25
1.71
1.13
0.67
0.41
0.36
0.45
0.62
0.80
0.96
1.07
1.06
0.89
0.54
0.04
-0.55
-1.12
-1.57
-1.84
-1.93
-1.84
-1.61
-1.31
-0.95
-0.57
-0.20
0.13
0.38
0.52
0.58
0.59
0.62
0.70
0.85
1.01
1.10
1.05
0.82
0.45
0.01
-0.41
-0.74
-0.92
-0.94
-0.81
-0.56
-0.27
0.02
0.26
0.41
0.46
0.40
0.21
-0.09
-0.45
-0.81
-1.07
-1.22
-1.24
-1.19
-1.13
-1.13
-1.16
-1.18
-1.12
-0.93
-0.62
-0.26
0.04
0.19
0.18
0.10
0.06
0.15
0.37
0.63
0.77
0.76
0.66
0.62
0.78
1.16
1.61
1.91
1.92
1.63
1.16
0.70
0.37
0.17
0.03
-0.14
-0.38
-0.67
-0.94
-1.16
-1.29
-1.28
-1.11
-0.77
-0.29
0.25
0.78
1.25
1.64
1.96
2.22
2.34
2.29
2.05
1.67
1.25
0.93
0.74
0.68
0.67
0.63
0.52
0.32
0.08
-0.15
-0.33
-0.43
-0.41
-0.29
-0.11
0.04
0.06
-0.06
-0.26
-0.43
-0.51
-0.50
-0.47
-0.52
-0.64
-0.74
-0.69
-0.42
0.00
0.41
0.61
0.53
0.27
0.04
0.05
0.34
0.82
1.30
1.57
1.54
1.18
0.60
-0.04
-0.59
-0.91
-0.96
-0.78
-0.50
-0.27
-0.15
-0.17
-0.22
-0.20
-0.07
0.14
0.34
0.44
0.38
0.20
-0.05
-0.31
-0.53
-0.71
-0.83
-0.85
-0.77
-0.56
-0.28
-0.05
0.03
-0.13
-0.48
-0.89
-1.16
-1.15
-0.87
-0.42
0.03
0.34
0.50
0.59
0.71
0.90
1.08
1.16
1.08
0.85
0.57
0.37
0.35
0.54
0.87
1.23
1.47
1.49
1.23
0.75
0.15
-0.43
-0.89
-1.17
-1.25
-1.20
-1.04
-0.81
-0.52
-0.16
0.24
0.65
0.97
1.12
1.02
0.70
0.20
-0.32
-0.75
-1.03
-1.15
-1.15
-1.03
-0.82
-0.48
-0.02
0.50
0.95
1.20
1.17
0.90
0.50
0.14
-0.06
-0.06
0.07
0.25
0.36
0.34
0.19
-0.04
-0.32
-0.59
-0.83
-1.01
-1.08
-1.01
-0.82
-0.56
-0.28
-0.06
0.07
0.10
0.08
0.02
-0.03
-0.07
-0.08
-0.11
-0.15
-0.21
-0.25
-0.26
-0.22
-0.13
-0.02
0.04
0.02
-0.06
-0.14
-0.13
0.01
0.21
0.38
0.40
0.21
-0.16
-0.56
-0.84
-0.92
-0.79
-0.55
-0.34
-0.25
-0.30
-0.41
-0.46
-0.32
0.08
0.76
1.60
2.50
3.28
3.82
4.00
3.77
3.15
2.26
1.24
0.26
-0.56
-1.15
-1.53
-1.73
-1.80
-1.81
-1.80
-1.81
-1.84
-1.91
-1.99
-2.10
-2.22
-2.34
-2.41
-2.38
-2.22
-1.99
-1.82
-1.82
-2.05
-2.41
-2.75
-2.87
-2.72
-2.35
-1.88
-1.38
-0.87
-0.24
0.56
1.48
2.40
3.13
3.56
3.71
3.65
3.46
3.17
2.73
2.13
1.39
0.65
0.08
-0.19
-0.16
0.04
0.24
0.25
0.05
-0.29
-0.64
-0.85
-0.91
-0.83
-0.72
-0.65
-0.64
-0.65
-0.63
-0.49
-0.20
0.19
0.64
1.07
1.46
1.83
2.20
2.61
3.02
3.32
3.42
3.28
2.97
2.63
2.40
2.30
2.20
1.95
1.43
0.71
-0.02
-0.51
-0.61
-0.30
0.23
0.78
1.16
1.30
1.22
1.00
0.69
0.31
-0.13
-0.57
-0.96
-1.17
-1.15
-0.89
-0.49
-0.11
0.15
0.21
0.06
-0.24
-0.63
-1.03
-1.39
-1.63
-1.69
-1.51
-1.11
-0.56
-0.01
0.43
0.66
0.65
0.45
0.12
-0.22
-0.48
-0.60
-0.58
-0.44
-0.27
-0.14
-0.06
-0.04
-0.07
-0.15
-0.33
-0.69
-1.26
-2.02
-2.86
-3.62
-4.17
-4.42
-4.35
-4.03
-3.59
-3.21
-3.15
-3.61
-4.69
-6.31
-8.17
-9.88
-11.18
-12.08
-12.89
-14.12
-16.17
-19.15
-22.75
-26.41
-29.59
-32.04
-34.01
-36.15
-39.24
-43.81
-49.88
-56.96
-64.28
-71.10
-77.13
-82.66
-88.55
-96.06
-106.63
-121.63
-142.02
-167.78
-197.52
-228.36
-256.51
-278.36
-291.76
-296.68
-295.10
-289.90
-283.50
-276.91
-269.71
-260.63
-248.61
-233.39
-215.53
-195.90
-175.11
-153.25
-129.95
-104.85
-77.92
-49.65
-21.05
6.83
33.17
57.72
80.78
103.05
125.40
148.65
173.67
201.26
231.91
265.14
299.06
330.24
354.41
367.72
368.10
355.99
334.15
306.61
277.46
249.81
225.45
205.04
188.50
175.26
164.43
154.94
145.75
136.20
126.30
116.70
108.35
102.09
98.16
96.11
94.90
93.27
90.13
84.80
77.15
67.63
57.11
46.62
37.02
28.73
21.56
14.87
8.00
0.74
-6.37
-12.14
-15.25
-14.86
-11.20
-5.62
-0.12
3.37
3.67
0.76
-4.44
-10.54
-16.26
-20.76
-23.70
-25.01
-24.71
-22.87
-19.83
-16.23
-12.98
-10.87
-10.28
-10.95
-12.18
-13.19
-13.48
-12.97
-11.96
-10.90
-10.28
-10.50
-11.78
-14.09
-17.12
-20.28
-22.93
-24.64
-25.36
-25.48
-25.60
-26.18
-27.32
-28.74
-29.96
-30.56
-30.38
-29.54
-28.38
-27.28
-26.63
-26.75
-27.93
-30.24
-33.37
-36.44
-38.02
-36.56
-31.01
-21.47
-9.31
3.23
13.87
21.15
24.83
25.69
24.92
23.51
21.94
20.33
18.68
17.20
16.24
16.16
17.11
18.86
20.96
22.84
24.09
24.53
24.36
23.94
23.64
23.59
23.61
23.22
21.95
19.61
16.44
13.00
9.90
7.51
5.79
4.42
3.01
1.37
-0.38
-1.89
-2.77
-2.81
-2.05
-0.78
0.70
2.16
3.56
4.97
6.47
8.02
9.46
10.63
11.49
12.17
12.91
13.89
15.15
16.56
17.94
19.20
20.42
21.74
23.27
24.89
26.19
26.58
25.50
22.70
18.50
13.88
10.23
8.93
10.79
15.73
22.79
30.55
37.81
44.04
49.47
54.82
60.73
67.32
74.15
80.32
84.93
87.48
88.12
87.71
87.70
89.94
96.41
108.80
128.00
153.51
183.11
213.01
238.80
256.65
264.58
262.98
254.18
241.31
226.92
212.17
196.77
179.71
160.15
137.94
113.67
88.19
62.21
36.01
9.50
-17.49
-45.14
-73.61
-103.32
-134.87
-168.65
-204.10
-239.13
-270.24
-293.38
-305.47
-305.60
-295.39
-278.27
-258.09
-237.86
-219.12
-202.20
-186.93
-173.12
-160.77
-149.81
-139.92
-130.52
-121.02
-111.15
-101.09
-91.31
-82.40
-74.73
-68.30
-62.80
-57.71
-52.55
-47.02
-41.19
-35.41
-30.26
-26.21
-23.45
-21.76
-20.60
-19.29
-17.33
-14.61
-11.39
-8.21
-5.62
-4.00
-3.38
-3.55
-4.11
-4.69
-5.01
-4.97
-4.65
-4.21
-3.83
-3.59
-3.51
-3.52
-3.48
-3.30
-2.90
-2.30
-1.55
-0.79
-0.10
0.42
0.76
0.95
1.07
1.16
1.25
1.31
1.33
1.26
1.12
0.93
0.74
0.57
0.43
0.27
0.08
-0.16
-0.42
-0.67
-0.83
-0.91
-0.90
-0.86
-0.88
-1.02
-1.31
-1.71
-2.12
-2.43
-2.56
-2.46
-2.15
-1.73
-1.29
-0.91
-0.61
-0.37
-0.15
0.08
0.31
0.48
0.54
0.43
0.12
-0.41
-1.06
-1.71
-2.23
-2.54
-2.70
-2.81
-2.99
-3.25
-3.50
-3.66
-3.78
-4.10
-4.89
-6.33
-8.28
-10.28
-11.73
-12.20
-11.61
-10.20
-8.42
-6.64
-5.07
-3.71
-2.50
-1.39
-0.32
0.71
1.71
2.64
3.42
3.91
4.01
3.73
3.23
2.78
2.64
2.90
3.46
4.03
4.30
4.06
3.31
2.23
1.08
0.16
-0.34
-0.34
0.11
0.88
1.82
2.73
3.44
3.84
3.84
3.42
2.61
1.50
0.28
-0.87
-1.72
-2.16
-2.15
-1.75
-1.05
-0.12
0.98
2.18
3.36
4.40
5.20
5.80
6.30
6.88
7.60
8.39
9.05
9.33
9.11
8.44
7.50
6.51
5.61
4.83
4.10
3.37
2.61
1.90
1.29
0.85
0.52
0.23
-0.12
-0.54
-0.97
-1.28
-1.40
-1.33
-1.16
-1.05
-1.07
-1.23
-1.46
-1.68
-1.83
-1.94
-2.04
-2.18
-2.34
-2.46
-2.50
-2.46
-2.33
-2.15
-1.93
-1.65
-1.34
-1.03
-0.76
-0.58
-0.45
-0.29
-0.05
0.29
0.65
0.90
0.96
0.85
0.68
0.58
0.61
0.70
0.72
0.55
0.21
-0.20
-0.55
-0.72
-0.70
-0.55
-0.32
-0.06
0.22
0.51
0.77
0.96
1.07
1.09
1.06
1.03
1.03
1.06
1.08
1.03
0.86
0.59
0.25
-0.05
-0.23
-0.26
-0.18
-0.09
-0.10
-0.23
-0.46
-0.71
-0.90
-0.98
-0.96
-0.86
-0.72
-0.53
-0.31
-0.10
0.04
0.07
-0.04
-0.20
-0.31
-0.24
0.05
0.52
1.04
1.45
1.65
1.58
1.29
0.85
0.37
-0.03
-0.26
-0.27
-0.08
0.24
0.54
0.70
0.65
0.38
-0.02
-0.46
-0.89
-1.26
-1.56
-1.76
-1.83
-1.76
-1.57
-1.36
-1.19
-1.11
-1.09
-1.09
-1.03
-0.92
-0.78
-0.68
-0.65
-0.66
-0.63
-0.52
-0.29
0.05
0.46
0.91
1.36
1.79
2.12
2.30
2.26
2.00
1.56
1.04
0.55
0.14
-0.15
-0.33
-0.39
-0.37
-0.29
-0.22
-0.19
-0.25
-0.38
-0.52
-0.61
-0.58
-0.45
-0.29
-0.21
-0.24
-0.37
-0.52
-0.61
-0.60
-0.53
-0.48
-0.51
-0.60
-0.69
-0.65
-0.42
0.02
0.57
1.13
1.60
1.96
2.22
2.37
2.40
2.31
2.07
1.71
1.32
0.95
0.66
0.48
0.38
0.31
0.22
0.06
-0.19
-0.52
-0.88
-1.16
-1.28
-1.21
-0.99
-0.73
-0.53
-0.42
-0.33
-0.18
0.10
0.44
0.75
0.89
0.83
0.59
0.29
-0.01
-0.27
-0.47
-0.64
-0.74
-0.73
-0.59
-0.32
0.02
0.36
0.64
0.87
1.04
1.15
1.17
1.06
0.82
0.47
0.09
-0.20
-0.30
-0.20
0.11
0.55
1.01
1.45
1.77
1.93
1.88
1.62
1.19
0.69
0.23
-0.07
-0.18
-0.15
-0.13
-0.24
-0.61
-1.22
-1.96
-2.65
-3.12
-3.23
-2.96
-2.36
-1.59
-0.79
-0.10
0.42
0.75
0.90
0.92
0.86
0.77
0.73
0.80
0.97
1.18
1.33
1.30
1.07
0.68
0.28
0.00
-0.11
-0.14
-0.20
-0.43
-0.85
-1.36
-1.76
-1.92
-1.74
-1.28
-0.67
-0.09
0.31
0.47
0.40
0.21
0.02
-0.08
-0.03
0.11
0.30
0.48
0.61
0.73
0.88
1.05
1.18
1.16
0.92
0.48
-0.02
-0.38
-0.45
-0.21
0.22
0.63
0.86
0.87
0.71
0.54
0.44
0.42
0.40
0.26
-0.06
-0.55
-1.11
-1.62
-2.00
-2.19
-2.20
-2.05
-1.79
-1.48
-1.17
-0.89
-0.64
-0.40
-0.15
0.06
0.18
0.16
0.03
-0.15
-0.22
-0.10
0.21
0.61
0.93
1.07
1.01
0.82
0.59
0.35
0.05
-0.36
-0.92
-1.56
-2.14
-2.48
-2.50
-2.23
-1.85
-1.57
-1.54
-1.75
-2.08
-2.35
-2.44
-2.34
-2.16
-1.97
-1.79
-1.48
-0.87
0.14
1.45
2.83
3.97
4.65
4.86
4.74
4.50
4.28
4.09
3.85
3.47
2.93
2.32
1.74
1.28
0.90
0.51
0.05
-0.49
-0.98
-1.29
-1.35
-1.17
-0.83
-0.47
-0.15
0.12
0.34
0.54
0.69
0.78
0.79
0.73
0.65
0.58
0.56
0.59
0.67
0.78
0.91
1.02
1.10
1.15
1.19
1.25
1.30
1.34
1.35
1.33
1.31
1.29
1.25
1.11
0.83
0.42
-0.03
-0.37
-0.47
-0.27
0.15
0.67
1.12
1.40
1.51
1.49
1.41
1.27
1.08
0.82
0.50
0.17
-0.10
-0.31
-0.49
-0.70
-0.97
-1.26
-1.48
-1.49
-1.29
-0.94
-0.67
-0.67
-1.02
-1.66
-2.33
-2.78
-2.88
-2.66
-2.36
-2.23
-2.41
-2.85
-3.35
-3.67
-3.61
-3.13
-2.29
-1.23
-0.05
1.13
2.21
3.05
3.50
3.48
3.07
2.45
1.92
1.69
1.79
2.06
2.22
2.04
1.51
0.79
0.21
0.06
0.49
1.43
2.64
3.85
4.80
5.33
5.37
4.90
3.94
2.61
1.07
-0.44
-1.64
-2.37
-2.55
-2.28
-1.75
-1.18
-0.74
-0.55
-0.64
-0.99
-1.53
-2.18
-2.80
-3.24
-3.37
-3.17
-2.70
-2.10
-1.53
-1.11
-0.83
-0.62
-0.39
-0.11
0.16
0.33
0.31
0.12
-0.16
-0.41
-0.56
-0.62
-0.65
-0.71
-0.80
-0.90
-0.97
-0.98
-0.97
-0.96
-0.98
-1.01
-1.01
-0.96
-0.86
-0.72
-0.57
-0.38
-0.14
0.12
0.36
0.48
0.43
0.25
0.04
-0.09
-0.10
0.02
0.20
0.33
0.38
0.31
0.19
0.07
0.02
0.05
0.15
0.23
0.22
0.05
-0.30
-0.80
-1.42
-2.08
-2.69
-3.17
-3.44
-3.45
-3.22
-2.87
-2.58
-2.51
-2.72
-3.14
-3.61
-3.95
-4.11
-4.12
-4.10
-4.12
-4.13
-3.99
-3.54
-2.78
-1.86
-1.07
-0.68
-0.79
-1.36
-2.19
-3.11
-4.10
-5.21
-6.52
-8.05
-9.70
-11.38
-13.12
-15.06
-17.49
-20.59
-24.41
-28.69
-33.05
-37.09
-40.65
-43.85
-47.12
-50.95
-55.74
-61.60
-68.36
-75.66
-83.12
-90.48
-97.75
-105.14
-113.20
-122.83
-135.26
-151.71
-172.81
-197.84
-224.41
-248.79
-267.04
-276.42
-276.41
-268.78
-256.68
-243.17
-229.97
-217.01
-202.96
-186.24
-165.96
-142.33
-116.49
-89.84
-63.51
-37.95
-12.91
12.27
38.39
66.15
96.20
128.96
164.30
200.94
236.20
266.29
287.32
296.86
294.99
284.36
269.14
253.32
239.34
227.78
218.00
209.24
201.38
195.03
191.00
189.63
190.31
191.38
190.42
184.98
173.33
155.49
133.40
110.58
90.87
76.99
69.55
66.94
66.30
64.89
61.07
54.62
46.16
36.39
25.67
14.06
1.78
-10.40
-21.15
-28.97
-32.82
-32.53
-29.04
-24.00
-19.23
-16.08
-14.98
-15.47
-16.55
-17.19
-16.74
-15.22
-13.16
-11.35
-10.44
-10.64
-11.67
-12.89
-13.70
-13.79
-13.29
-12.66
-12.39
-12.67
-13.33
-13.90
-13.91
-13.12
-11.64
-9.88
-8.26
-7.04
-6.24
-5.67
-5.13
-4.48
-3.71
-2.91
-2.18
-1.55
-0.99
-0.43
0.17
0.76
1.26
1.57
1.67
1.62
1.54
1.56
1.70
1.85
1.88
1.64
1.13
0.45
-0.22
-0.75
-1.12
-1.45
-1.89
-2.55
-3.38
-4.24
-4.94
-5.34
-5.43
-5.29
-5.03
-4.73
-4.39
-3.96
-3.42
-2.83
-2.30
-2.02
-2.08
-2.48
-3.08
-3.65
-4.00
-4.07
-3.96
-3.83
-3.84
-4.02
-4.29
-4.47
-4.37
-3.89
-3.02
-1.84
-0.44
1.04
2.47
3.73
4.70
5.28
5.45
5.24
4.76
4.14
3.49
2.88
2.35
1.89
1.53
1.29
1.23
1.39
1.74
2.19
2.56
2.71
2.59
2.24
1.78
1.37
1.13
1.08
1.17
1.25
1.19
0.89
0.33
-0.48
-1.42
-2.38
-3.24
-3.87
-4.17
-4.10
-3.75
-3.27
-2.88
-2.73
-2.86
-3.16
-3.40
-3.38
-2.98
-2.26
-1.40
-0.60
0.01
0.42
0.69
0.92
1.16
1.43
1.69
1.91
2.09
2.22
2.30
2.26
2.03
1.52
0.72
-0.25
-1.19
-1.91
-2.26
-2.24
-1.94
-1.50
-1.07
-0.78
-0.71
-0.95
-1.50
-2.29
-3.12
-3.75
-3.99
-3.75
-3.11
-2.25
-1.37
-0.60
0.04
0.56
0.99
1.33
1.59
1.75
1.82
1.79
1.66
1.44
1.16
0.91
0.79
0.83
0.98
1.13
1.11
0.84
0.33
-0.32
-0.98
-1.57
-2.02
-2.32
-2.47
-2.51
-2.53
-2.63
-2.92
-3.42
-4.01
-4.54
-4.86
-4.92
-4.83
-4.72
-4.68
-4.68
-4.58
-4.25
-3.64
-2.88
-2.15
-1.64
-1.41
-1.40
-1.46
-1.45
-1.27
-0.94
-0.46
0.12
0.78
1.51
2.23
2.84
3.24
3.37
3.26
3.07
3.03
3.31
3.94
4.82
5.73
6.44
6.77
6.67
6.23
5.57
4.83
4.16
3.63
3.31
3.19
3.22
3.29
3.23
2.94
2.38
1.60
0.73
-0.03
-0.58
-0.85
-0.87
-0.73
-0.56
-0.44
-0.48
-0.70
-1.12
-1.73
-2.44
-3.13
-3.63
-3.81
-3.62
-3.20
-2.84
-2.85
-3.46
-4.72
-6.49
-8.44
-10.18
-11.39
-11.92
-11.81
-11.33
-10.81
-10.48
-10.38
-10.26
-9.75
-8.60
-6.83
-4.80
-3.11
-2.30
-2.63
-3.99
-5.93
-7.85
-9.21
-9.58
-8.76
-6.85
-4.20
-1.35
1.09
2.71
3.45
3.61
3.67
3.99
4.54
4.84
4.17
1.88
-2.24
-7.73
-13.47
-17.82
-19.06
-15.96
-8.28
2.88
15.32
26.44
34.21
37.90
38.25
36.86
35.28
34.14
33.11
31.36
28.44
24.63
20.88
18.10
16.50
15.40
13.67
10.41
5.57
0.03
-4.95
-8.34
-9.85
-9.90
-9.28
-8.65
-8.27
-8.04
-7.71
-7.15
-6.44
-5.82
-5.50
-5.53
-5.77
-5.95
-5.81
-5.19
-4.03
-2.37
-0.36
1.79
3.78
5.32
6.17
6.31
5.87
5.22
4.71
4.63
5.04
5.79
6.59
7.11
7.07
6.34
4.92
2.94
0.71
-1.42
-3.10
-4.11
-4.41
-4.19
-3.74
-3.35
-3.19
-3.27
-3.53
-3.90
-4.36
-4.92
-5.59
-6.30
-6.91
-7.25
-7.21
-6.78
-6.03
-5.07
-4.02
-2.98
-2.05
-1.29
-0.79
-0.57
-0.64
-0.99
-1.57
-2.34
-3.25
-4.18
-5.02
-5.65
-5.98
-6.00
-5.75
-5.35
-4.89
-4.39
-3.78
-2.97
-1.84
-0.39
1.28
2.92
4.20
4.76
4.34
2.85
0.42
-2.61
-5.71
-8.28
-9.75
-9.75
-8.27
-5.74
-2.93
-0.64
0.57
0.68
0.17
-0.20
0.16
1.44
3.36
5.36
6.95
7.89
8.22
8.05
7.47
6.46
5.00
3.26
1.57
0.39
0.05
0.59
1.70
2.81
3.39
3.10
1.96
0.27
-1.57
-3.17
-4.30
-4.86
-4.88
-4.44
-3.61
-2.50
-1.19
0.22
1.61
2.84
3.74
4.14
3.90
3.03
1.70
0.25
-0.90
-1.46
-1.34
-0.68
0.18
0.88
1.16
0.91
0.22
-0.76
-1.84
-2.89
-3.87
-4.74
-5.46
-5.95
-6.13
-5.94
-5.41
-4.60
-3.61
-2.50
-1.34
-0.16
0.90
1.65
1.89
1.57
0.83
0.00
-0.53
-0.52
-0.04
0.58
0.85
0.36
-1.02
-3.10
-5.39
-7.35
-8.56
-8.93
-8.73
-8.45
-8.56
-9.37
-10.84
-12.70
-14.57
-16.15
-17.31
-18.09
-18.58
-18.89
-19.17
-19.60
-20.30
-21.00
-20.82
-18.38
-12.32
-2.25
10.65
23.71
33.62
37.86
35.81
29.05
20.59
13.48
9.63
9.25
11.18
13.77
15.70
16.49
16.37
15.85
15.33
14.80
13.94
12.32
9.86
6.87
4.12
2.40
2.12
3.08
4.49
5.30
4.77
2.78
-0.10
-2.82
-4.38
-4.13
-2.11
1.13
4.72
7.83
9.98
11.06
11.24
10.78
9.83
8.39
6.43
4.02
1.49
-0.58
-1.55
-0.93
1.36
4.96
9.18
13.18
16.31
18.25
19.07
19.22
19.24
19.46
19.71
19.32
17.31
12.86
5.83
-3.02
-12.18
-19.94
-25.02
-26.98
-26.28
-23.94
-21.02
-18.19
-15.69
-13.42
-11.24
-9.19
-7.46
-6.26
-5.65
-5.45
-5.35
-5.03
-4.36
-3.47
-2.63
-2.16
-2.23
-2.75
-3.44
-3.91
-3.89
-3.33
-2.44
-1.58
-1.08
-1.04
-1.35
-1.69
-1.78
-1.51
-0.97
-0.34
0.20
0.60
0.93
1.25
1.59
1.88
2.04
2.06
1.98
1.92
1.96
2.11
2.30
2.44
2.47
2.38
2.24
2.12
2.06
2.03
1.94
1.74
1.36
0.86
0.25
-0.45
-1.28
-2.27
-3.42
-4.60
-5.63
-6.32
-6.61
-6.58
-6.40
-6.24
-6.16
-6.09
-5.88
-5.42
-4.70
-3.84
-3.03
-2.45
-2.26
-2.51
-3.16
-4.07
-5.06
-5.94
-6.56
-6.85
-6.78
-6.35
-5.57
-4.45
-3.02
-1.36
0.37
1.97
3.28
4.20
4.73
4.97
5.00
4.87
4.58
4.11
3.49
2.78
2.11
1.59
1.30
1.23
1.29
1.40
1.45
1.44
1.39
1.36
1.42
1.56
1.75
1.87
1.79
1.43
0.77
-0.11
-1.04
-1.83
-2.29
-2.30
-1.85
-1.06
-0.14
0.71
1.35
1.74
1.96
2.07
2.08
1.93
1.53
0.87
0.04
-0.76
-1.33
-1.59
-1.56
-1.39
-1.18
-1.01
-0.86
-0.68
-0.45
-0.19
0.02
0.13
0.12
-0.02
-0.22
-0.45
-0.67
-0.86
-0.97
-1.00
-0.93
-0.74
-0.45
-0.09
0.30
0.62
0.78
0.75
0.58
0.43
0.45
0.71
1.17
1.62
1.85
1.73
1.28
0.71
0.27
0.10
0.23
0.53
0.80
0.95
0.94
0.85
0.71
0.53
0.26
-0.15
-0.71
-1.34
-1.90
-2.23
-2.24
-1.90
-1.33
-0.67
-0.07
0.36
0.62
0.74
0.79
0.77
0.68
0.51
0.25
-0.03
-0.28
-0.42
-0.47
-0.46
-0.48
-0.57
-0.73
-0.95
-1.20
-1.47
-1.77
-2.08
-2.32
-2.39
-2.21
-1.77
-1.19
-0.67
-0.42
-0.63
-1.38
-2.56
-3.95
-5.19
-5.93
-5.90
-5.02
-3.44
-1.43
0.74
2.85
4.84
6.68
8.32
9.56
10.18
9.98
8.93
7.28
5.42
3.73
2.45
1.59
0.97
0.43
-0.12
-0.61
-0.89
-0.87
-0.59
-0.26
-0.11
-0.34
-0.93
-1.68
-2.31
-2.58
-2.37
-1.76
-0.96
-0.18
0.42
0.83
1.14
1.47
1.89
2.39
2.85
3.15
3.23
3.11
2.89
2.63
2.35
1.98
1.44
0.71
-0.11
-0.86
-1.33
-1.43
-1.20
-0.82
-0.49
-0.39
-0.59
-1.03
-1.59
-2.16
-2.61
-2.90
-3.04
-3.06
-2.96
-2.75
-2.42
-1.99
-1.51
-1.03
-0.61
-0.24
0.13
0.53
0.95
1.28
1.39
1.20
0.75
0.16
-0.37
-0.70
-0.83
-0.82
-0.80
-0.82
-0.88
-0.90
-0.80
-0.57
-0.27
-0.00
0.16
0.18
0.10
-0.02
-0.10
-0.15
-0.19
-0.31
-0.54
-0.87
-1.22
-1.48
-1.55
-1.40
-1.09
-0.72
-0.40
-0.23
-0.21
-0.30
-0.45
-0.59
-0.66
-0.65
-0.56
-0.45
-0.37
-0.39
-0.50
-0.64
-0.73
-0.72
-0.61
-0.45
-0.34
-0.34
-0.42
-0.54
-0.63
-0.65
-0.65
-0.63
-0.60
-0.52
-0.32
-0.04
0.24
0.35
0.21
-0.14
-0.58
-0.90
-0.97
-0.81
-0.54
-0.33
-0.31
-0.48
-0.74
-0.95
-1.05
-1.06
-1.04
-1.09
-1.28
-1.63
-2.10
-2.60
-3.01
-3.25
-3.30
-3.21
-3.05
-2.91
-2.88
-3.01
-3.28
-3.60
-3.88
-4.06
-4.19
-4.36
-4.61
-4.91
-5.05
-4.75
-3.78
-2.11
-0.05
1.87
3.05
3.10
1.98
0.04
-2.15
-4.04
-5.30
-5.96
-6.34
-6.98
-8.37
-10.74
-13.89
-17.29
-20.18
-21.96
-22.37
-21.70
-20.65
-20.18
-21.18
-24.33
-29.80
-36.96
-44.19
-48.96
-48.37
-40.28
-24.42
-2.94
20.08
40.00
53.34
59.01
58.27
53.77
48.11
42.80
38.07
33.43
28.51
23.59
19.45
16.86
15.98
16.09
15.98
14.46
11.08
6.33
1.40
-2.41
-4.39
-4.70
-4.22
-4.06
-5.01
-7.14
-9.93
-12.55
-14.37
-15.19
-15.38
-15.62
-16.66
-18.98
-22.63
-27.21
-32.02
-36.37
-39.82
-42.43
-44.64
-47.02
-49.92
-53.31
-56.71
-59.41
-60.76
-60.48
-58.76
-56.22
-53.55
-51.20
-49.06
-46.43
-42.18
-35.08
-24.21
-9.30
9.05
29.34
49.48
67.15
80.39
88.10
90.27
87.94
82.81
76.55
70.35
64.57
58.85
52.37
44.26
33.96
21.44
7.39
-6.96
-20.02
-30.27
-36.53
-38.24
-35.58
-29.49
-21.50
-13.49
-7.30
-4.41
-5.57
-10.71
-18.96
-28.96
-39.18
-48.33
-55.58
-60.77
-64.36
-67.19
-70.10
-73.50
-77.13
-80.20
-81.89
-81.89
-80.89
-80.53
-82.79
-89.02
-99.06
-110.85
-120.80
-124.88
-119.85
-104.13
-77.88
-42.52
-0.10
46.76
94.69
139.26
175.27
198.01
204.91
196.78
177.84
154.21
131.75
114.22
102.55
95.51
91.02
87.40
83.87
80.36
77.00
73.63
69.84
65.25
59.84
54.20
49.27
45.97
44.74
45.28
46.62
47.49
46.71
43.64
38.34
31.48
24.09
17.24
11.64
7.56
4.84
3.11
2.18
2.20
3.66
7.13
12.84
20.50
29.26
37.96
45.66
51.92
57.01
61.76
67.19
73.93
81.67
88.94
93.22
91.42
80.91
60.56
31.56
-2.56
-36.75
-65.96
-86.71
-97.99
-101.11
-98.76
-93.61
-87.43
-80.90
-74.07
-67.02
-60.35
-54.99
-51.77
-50.90
-51.81
-53.38
-54.50
-54.43
-52.92
-50.15
-46.37
-41.68
-36.01
-29.27
-21.47
-12.84
-3.81
5.14
13.55
21.11
27.68
33.36
38.47
43.48
48.82
54.68
60.76
66.35
70.44
72.01
70.20
64.46
54.66
41.23
25.22
8.25
-7.81
-21.29
-31.12
-36.98
-39.34
-39.14
-37.54
-35.61
-34.14
-33.57
-34.01
-35.24
-36.86
-38.37
-39.29
-39.19
-37.64
-34.34
-29.20
-22.58
-15.30
-8.50
-3.31
-0.45
0.05
-1.13
-2.85
-3.88
-3.30
-0.66
3.96
10.12
17.20
24.61
31.82
38.43
44.17
48.96
52.94
56.49
60.13
64.30
69.10
74.08
78.35
80.93
81.24
79.59
77.18
75.62
76.19
79.21
84.02
89.35
93.97
96.82
96.99
93.76
87.12
78.75
72.48
73.52
86.41
112.57
149.04
189.32
226.05
254.14
272.33
282.70
288.42
291.52
291.96
288.40
279.82
266.57
250.39
233.37
216.75
200.41
183.20
163.81
141.74
117.69
93.37
70.66
50.75
33.62
18.05
2.21
-15.46
-35.54
-57.45
-79.85
-101.24
-120.71
-138.26
-154.77
-171.63
-190.43
-212.48
-238.51
-268.09
-299.25
-328.50
-351.50
-364.37
-365.05
-354.07
-334.30
-309.70
-283.95
-259.37
-236.94
-216.83
-199.19
-184.37
-172.70
-163.85
-156.67
-149.44
-140.61
-129.52
-116.61
-103.14
-90.61
-80.05
-71.74
-65.27
-59.88
-54.88
-49.87
-44.78
-39.79
-35.14
-31.06
-27.67
-25.01
-22.97
-21.33
-19.85
-18.31
-16.64
-14.95
-13.46
-12.45
-12.09
-12.35
-13.00
-13.63
-13.83
-13.36
-12.21
-10.67
-9.18
-8.17
-7.91
-8.39
-9.36
-10.45
-11.36
-11.95
-12.30
-12.57
-12.93
-13.40
-13.91
-14.28
-14.24
-13.38
-11.06
-6.58
0.55
10.20
21.40
32.49
41.68
47.64
49.99
49.23
46.34
42.25
37.54
32.52
27.44
22.68
18.69
15.76
13.79
12.39
11.06
9.48
7.63
5.71
3.99
2.63
1.61
0.82
0.13
-0.54
-1.23
-1.93
-2.61
-3.22
-3.72
-4.07
-4.30
-4.49
-4.75
-5.19
-5.84
-6.62
-7.46
-8.27
-9.00
-9.66
-10.26
-10.76
-11.07
-11.04
-10.62
-9.83
-8.83
-7.82
-6.95
-6.27
-5.66
-4.99
-4.15
-3.16
-2.14
-1.22
-0.51
-0.04
0.23
0.33
0.27
0.06
-0.30
-0.75
-1.23
-1.68
-2.11
-2.58
-3.15
-3.86
-4.74
-5.82
-7.10
-8.59
-10.19
-11.70
-12.87
-13.50
-13.52
-13.03
-12.30
-11.56
-10.97
-10.49
-10.01
-9.40
-8.55
-7.42
-5.93
-4.02
-1.64
1.11
4.07
6.96
9.60
11.95
14.05
15.90
17.29
17.82
17.00
14.66
11.15
7.32
4.26
2.65
2.43
2.69
2.06
-0.53
-5.28
-11.27
-16.83
-20.37
-21.24
-20.10
-18.74
-19.26
-22.99
-29.80
-37.99
-45.02
-48.62
-47.94
-44.04
-39.58
-37.74
-41.07
-50.43
-64.73
-81.02
-95.10
-102.18
-97.71
-78.59
-44.61
0.26
47.93
88.20
112.43
117.10
105.45
85.83
67.65
56.97
54.37
56.03
56.99
54.52
49.22
43.95
41.23
41.41
42.54
41.84
37.52
29.80
20.64
12.67
7.97
7.31
9.89
13.68
16.08
14.96
9.68
1.54
-6.99
-13.79
-18.57
-23.44
-31.91
-47.24
-70.79
-101.53
-136.60
-172.53
-206.40
-236.18
-260.74
-279.58
-292.82
-301.18
-306.03
-308.95
-311.18
-313.23
-314.85
-315.49
-314.65
-312.05
-307.49
-300.76
-291.61
-279.96
-266.03
-250.34
-233.47
-215.74
-197.10
-177.12
-155.41
-131.83
-106.76
-81.01
-55.53
-31.05
-7.81
14.52
36.52
58.63
80.87
102.74
123.50
142.52
159.65
175.39
190.70
206.84
225.17
246.84
272.36
300.91
329.93
355.23
371.96
376.35
367.19
346.51
318.88
289.63
262.87
240.30
221.27
203.87
186.37
168.06
149.35
131.19
114.33
98.97
84.70
70.99
57.50
44.45
32.49
22.24
13.90
7.00
0.66
-5.75
-11.88
-15.91
-14.90
-5.91
12.58
39.63
71.68
103.54
129.91
146.90
152.97
149.00
137.73
122.85
108.15
96.90
91.45
92.95
101.06
113.66
126.68
134.83
132.95
117.94
90.25
54.15
16.51
-15.76
-38.12
-49.70
-52.83
-51.32
-48.56
-46.43
-45.35
-45.05
-45.38
-46.44
-48.31
-50.62
-52.55
-53.11
-51.66
-48.19
-43.35
-38.25
-34.03
-31.47
-30.74
-31.33
-32.22
-32.27
-30.66
-27.27
-22.71
-18.01
-14.17
-11.67
-10.33
-9.47
-8.27
-6.22
-3.32
0.02
3.22
5.85
7.78
9.21
10.44
11.69
12.95
14.04
14.71
14.81
14.35
13.55
12.71
12.12
11.87
11.94
12.18
12.38
12.36
11.95
11.04
9.54
7.45
4.89
2.19
-0.25
-2.01
-2.86
-2.82
-2.20
-1.47
-1.10
-1.39
-2.36
-3.85
-5.54
-7.14
-8.46
-9.45
-10.17
-10.74
-11.19
-11.53
-11.71
-11.67
-11.43
-11.04
-10.59
-10.18
-9.81
-9.45
-9.05
-8.54
-7.91
-7.21
-6.55
-6.02
-5.67
-5.48
-5.33
-5.06
-4.59
-3.92
-3.15
-2.43
-1.85
-1.42
-1.07
-0.70
-0.24
0.28
0.75
1.08
1.17
1.02
0.68
0.26
-0.16
-0.49
-0.68
-0.73
-0.66
-0.46
-0.17
0.14
0.37
0.44
0.34
0.16
0.07
0.23
0.73
1.54
2.51
3.42
4.01
4.05
3.36
1.93
-0.04
-2.20
-4.05
-5.21
-5.47
-4.88
-3.70
-2.26
-0.88
0.22
0.93
1.24
1.18
0.83
0.32
-0.24
-0.72
-1.04
-1.15
-1.03
-0.68
-0.15
0.47
1.06
1.47
1.60
1.47
1.16
0.82
0.58
0.51
0.58
0.71
0.78
0.75
0.63
0.48
0.35
0.26
0.21
0.18
0.22
0.36
0.64
1.02
1.37
1.57
1.49
1.17
0.75
0.40
0.25
0.31
0.51
0.69
0.75
0.64
0.39
0.05
-0.32
-0.69
-1.03
-1.30
-1.45
-1.44
-1.27
-1.02
-0.76
-0.55
-0.38
-0.21
0.01
0.32
0.65
0.89
0.92
0.68
0.21
-0.36
-0.86
-1.16
-1.20
-1.05
-0.83
-0.65
-0.59
-0.60
-0.64
-0.61
-0.48
-0.30
-0.12
0.02
0.12
0.27
0.53
0.95
1.47
1.96
2.25
2.25
1.94
1.47
1.02
0.76
0.74
0.89
1.08
1.19
1.14
0.95
0.71
0.46
0.27
0.13
0.03
-0.04
-0.09
-0.11
-0.07
0.02
0.16
0.33
0.51
0.70
0.90
1.15
1.46
1.86
2.31
2.77
3.17
3.44
3.56
3.59
3.63
3.80
4.23
4.91
5.81
6.79
7.71
8.50
9.20
9.88
10.66
11.59
12.65
13.69
14.52
14.96
14.90
14.35
13.45
12.44
11.55
10.93
10.53
10.10
9.22
7.46
4.55
0.50
-4.36
-9.50
-14.29
-18.17
-20.71
-21.76
-21.40
-20.01
-18.11
-16.28
-14.90
-14.10
-13.75
-13.57
-13.28
-12.72
-11.91
-10.90
-9.73
-8.40
-6.94
-5.45
-4.08
-3.01
-2.32
-1.97
-1.79
-1.60
-1.27
-0.80
-0.31
0.02
0.07
-0.19
-0.68
-1.22
-1.66
-1.92
-2.00
-1.97
-1.85
-1.67
-1.42
-1.10
-0.76
-0.52
-0.50
-0.73
-1.16
-1.67
-2.13
-2.45
-2.60
-2.62
-2.53
-2.33
-2.05
-1.72
-1.37
-1.03
-0.70
-0.36
0.01
0.43
0.83
1.19
1.44
1.57
1.57
1.43
1.18
0.86
0.55
0.36
0.40
0.69
1.15
1.61
1.91
1.95
1.72
1.34
0.94
0.62
0.45
0.41
0.47
0.58
0.69
0.76
0.73
0.60
0.40
0.18
0.01
-0.03
0.03
0.16
0.30
0.41
0.46
0.43
0.31
0.11
-0.16
-0.45
-0.69
-0.87
-0.97
-1.02
-1.04
-1.01
-0.95
-0.83
-0.68
-0.53
-0.40
-0.32
-0.27
-0.24
-0.24
-0.26
-0.28
-0.23
-0.04
0.31
0.80
1.36
1.90
2.38
2.76
3.07
3.31
3.50
3.67
3.87
4.14
4.48
4.84
5.09
5.10
4.77
4.09
3.15
2.11
1.16
0.42
-0.05
-0.29
-0.39
-0.50
-0.68
-0.95
-1.24
-1.49
-1.66
-1.78
-1.90
-2.08
-2.29
-2.46
-2.48
-2.26
-1.83
-1.31
-0.87
-0.64
-0.68
-0.91
-1.21
-1.41
-1.49
-1.48
-1.46
-1.47
-1.49
-1.43
-1.21
-0.86
-0.47
-0.20
-0.14
-0.31
-0.61
-0.89
-1.06
-1.08
-0.98
-0.81
-0.62
-0.39
-0.15
0.09
0.27
0.33
0.26
0.08
-0.15
-0.32
-0.37
-0.29
-0.13
0.06
0.21
0.30
0.37
0.46
0.62
0.83
1.03
1.15
1.14
0.99
0.77
0.54
0.40
0.41
0.53
0.71
0.81
0.75
0.45
-0.02
-0.56
-1.04
-1.32
-1.36
-1.20
-0.90
-0.58
-0.29
-0.05
0.14
0.29
0.40
0.44
0.33
-0.01
-0.57
-1.26
-1.86
-2.13
-1.97
-1.46
-0.91
-0.64
-0.87
-1.56
-2.38
-2.95
-2.99
-2.56
-1.99
-1.77
-2.27
-3.54
-5.27
-6.89
-7.80
-7.60
-6.27
-4.25
-2.23
-1.02
-1.23
-3.06
-6.31
-10.40
-14.62
-18.31
-21.07
-22.77
-23.55
-23.65
-23.27
-22.49
-21.14
-18.67
-14.20
-6.83
3.75
16.67
29.72
39.92
44.69
43.07
36.23
27.04
18.72
13.46
11.56
11.74
12.15
11.50
9.66
7.42
5.76
5.13
5.25
5.37
4.78
3.23
1.11
-0.80
-1.83
-1.74
-0.87
0.09
0.45
-0.05
-1.16
-2.26
-2.77
-2.45
-1.50
-0.45
0.20
0.16
-0.53
-1.55
-2.52
-3.08
-3.08
-2.59
-1.83
-1.08
-0.60
-0.49
-0.65
-0.88
-0.95
-0.76
-0.34
0.15
0.51
0.64
0.55
0.30
0.02
-0.21
-0.39
-0.49
-0.56
-0.59
-0.58
-0.50
-0.35
-0.14
0.07
0.24
0.31
0.23
0.02
-0.28
-0.60
-0.92
-1.20
-1.42
-1.56
-1.57
-1.41
-1.08
-0.63
-0.16
0.20
0.38
0.32
0.08
-0.26
-0.56
-0.70
-0.64
-0.43
-0.18
-0.03
-0.11
-0.43
-0.87
-1.28
-1.51
-1.54
-1.41
-1.26
-1.21
-1.30
-1.53
-1.85
-2.21
-2.59
-2.93
-3.18
-3.27
-3.16
-2.90
-2.64
-2.54
-2.74
-3.25
-3.93
-4.58
-4.98
-5.05
-4.86
-4.67
-4.83
-5.59
-6.97
-8.59
-9.80
-9.84
-8.26
-5.19
-1.36
2.07
4.04
4.05
2.40
0.09
-1.68
-2.04
-0.93
0.82
1.83
0.84
-2.68
-8.12
-13.82
-17.75
-18.45
-15.80
-11.33
-7.64
-7.23
-11.30
-19.09
-28.30
-36.21
-41.16
-43.19
-43.42
-43.17
-42.97
-42.51
-41.36
-39.31
-35.98
-29.69
-17.00
6.07
41.19
84.79
127.43
156.62
162.15
141.24
100.29
52.20
10.47
-16.47
-27.66
-27.98
-23.97
-19.90
-16.33
-11.37
-3.30
7.45
18.14
25.39
27.13
23.73
17.87
12.94
11.28
13.10
16.54
18.77
17.45
11.94
3.40
-5.74
-13.04
-17.18
-18.35
-17.90
-17.05
-16.19
-14.98
-13.25
-12.07
-13.77
-21.02
-35.75
-58.72
-89.96
-129.36
-176.42
-229.11
-282.63
-329.51
-361.65
-373.63
-365.37
-342.27
-312.66
-283.88
-259.42
-238.54
-218.23
-196.01
-171.30
-145.38
-119.89
-95.57
-71.84
-47.12
-19.71
11.70
47.54
87.19
128.73
168.89
203.56
228.73
241.78
242.41
232.63
216.04
196.73
178.47
164.39
156.90
157.57
166.70
182.83
202.76
222.28
237.60
246.55
249.10
246.88
242.12
236.78
231.94
228.02
225.09
223.29
222.81
223.91
226.84
231.86
239.23
248.90
260.24
271.75
281.13
285.75
283.46
273.32
255.97
233.38
208.14
182.67
158.67
136.96
117.68
100.49
84.81
69.85
54.78
38.92
21.97
4.20
-13.72
-31.04
-47.33
-62.72
-77.98
-94.32
-113.27
-136.23
-164.00
-196.07
-230.16
-262.34
-287.90
-302.95
-305.76
-297.44
-281.35
-261.63
-241.59
-222.85
-205.51
-189.05
-173.27
-158.67
-146.05
-135.88
-127.77
-120.59
-113.06
-104.34
-94.44
-84.10
-74.34
-65.90
-58.90
-52.87
-46.98
-40.58
-33.44
-25.90
-18.68
-12.50
-7.74
-4.34
-1.79
0.54
3.16
6.21
9.45
12.38
14.48
15.48
15.39
14.57
13.47
12.44
11.62
10.87
9.96
8.72
7.20
5.71
4.58
4.03
3.98
4.07
3.93
3.32
2.37
1.50
1.22
1.86
3.38
5.36
7.16
8.18
8.03
6.65
4.30
1.42
-1.54
-4.26
-6.62
-8.72
-10.76
-12.95
-15.41
-18.09
-20.70
-22.72
-23.45
-22.29
-18.95
-13.79
-7.84
-2.50
1.00
2.09
1.14
-0.69
-2.09
-2.22
-1.14
0.21
0.47
-1.52
-6.34
-13.91
-23.85
-35.83
-49.74
-65.53
-82.67
-99.97
-115.73
-128.30
-136.88
-141.97
-145.09
-148.10
-152.16
-157.22
-162.01
-164.55
-162.69
-154.51
-138.59
-114.29
-82.25
-44.83
-6.03
29.23
56.63
74.08
82.67
86.34
90.33
98.88
113.36
131.85
150.03
163.02
167.17
161.23
146.49
126.09
103.92
83.56
67.57
57.19
52.32
51.85
54.01
56.82
58.64
58.59
56.87
54.57
53.23
53.95
56.83
60.87
64.55
66.75
67.49
67.91
69.45
72.80
77.41
81.70
83.97
83.21
79.57
74.20
68.82
65.14
64.41
66.86
71.18
74.24
71.61
58.86
33.61
-3.08
-46.49
-89.64
-125.62
-149.91
-161.38
-161.84
-154.65
-143.17
-129.93
-116.65
-104.70
-95.43
-89.97
-88.75
-90.95
-94.57
-97.19
-97.03
-93.91
-89.27
-85.61
-85.22
-89.19
-96.91
-106.53
-115.93
-123.81
-130.21
-136.42
-144.30
-155.18
-169.05
-184.17
-197.46
-205.50
-205.80
-197.80
-183.16
-165.08
-146.95
-130.95
-117.28
-104.42
-90.17
-72.97
-52.61
-30.00
-6.44
17.35
41.70
67.85
97.43
132.22
174.07
224.66
284.69
352.60
423.53
489.56
541.64
572.62
579.93
566.45
539.07
505.67
472.16
441.01
411.80
382.85
352.88
321.65
289.61
257.08
223.77
189.09
152.64
114.69
76.13
38.23
1.71
-33.74
-69.52
-107.27
-147.68
-189.29
-228.40
-260.00
-279.66
-285.41
-278.58
-263.12
-243.95
-225.06
-208.48
-194.32
-181.74
-169.99
-158.89
-148.75
-139.75
-131.66
-123.79
-115.48
-106.43
-96.95
-87.81
-79.79
-73.32
-68.24
-63.92
-59.63
-54.84
-49.53
-44.14
-39.33
-35.73
-33.66
-33.05
-33.43
-33.99
-33.80
-31.99
-27.99
-21.70
-13.54
-4.34
4.84
13.03
19.52
23.98
26.39
26.94
25.88
23.48
19.99
15.70
10.93
6.07
1.49
-2.43
-5.35
-6.98
-7.16
-5.93
-3.56
-0.57
2.40
4.70
5.92
5.95
5.02
3.64
2.41
1.83
2.18
3.41
5.18
6.97
8.26
8.73
8.34
7.28
5.85
4.32
2.87
1.59
0.52
-0.31
-0.86
-1.16
-1.30
-1.41
-1.62
-1.96
-2.37
-2.73
-2.92
-2.91
-2.72
-2.49
-2.33
-2.38
-2.69
-3.22
-3.86
-4.45
-4.83
-4.90
-4.63
-4.12
-3.55
-3.15
-3.08
-3.39
-3.94
-4.49
-4.74
-4.48
-3.67
-2.44
-1.06
0.10
0.75
0.66
-0.23
-1.78
-3.62
-5.22
-5.97
-5.42
-3.40
-0.17
3.70
7.49
10.59
12.62
13.50
13.35
12.41
10.92
9.11
7.19
5.35
3.75
2.48
1.55
0.92
0.53
0.34
0.31
0.38
0.50
0.60
0.61
0.51
0.29
-0.09
-0.64
-1.37
-2.21
-3.03
-3.63
-3.89
-3.77
-3.41
-3.02
-2.81
-2.91
-3.27
-3.73
-4.11
-4.29
-4.22
-3.98
-3.68
-3.44
-3.35
-3.43
-3.66
-3.96
-4.24
-4.43
-4.52
-4.55
-4.62
-4.74
-4.85
-4.79
-4.36
-3.46
-2.22
-0.90
0.14
0.69
0.71
0.35
-0.19
-0.79
-1.44
-2.12
-2.70
-2.89
-2.38
-1.08
0.81
2.81
4.38
5.21
5.29
4.89
4.30
3.67
2.90
1.87
0.51
-0.91
-1.93
-2.00
-0.83
1.44
4.29
7.01
9.00
9.99
10.08
9.60
8.86
8.05
7.23
6.41
5.64
5.02
4.56
4.16
3.60
2.73
1.51
0.12
-1.22
-2.33
-3.17
-3.79
-4.26
-4.56
-4.64
-4.47
-4.12
-3.78
-3.59
-3.64
-3.85
-4.03
-3.98
-3.65
-3.12
-2.64
-2.48
-2.83
-3.69
-4.88
-6.07
-6.96
-7.36
-7.28
-6.91
-6.57
-6.57
-7.18
-8.46
-10.28
-12.19
-13.54
-13.64
-12.04
-8.75
-4.32
0.27
3.95
5.91
5.90
4.32
2.02
0.10
-0.50
0.72
3.68
7.79
12.13
15.72
17.85
18.20
16.92
14.45
11.44
8.48
6.01
4.24
3.10
2.30
1.45
0.20
-1.62
-3.88
-6.26
-8.32
-9.76
-10.54
-10.92
-11.45
-12.69
-15.02
-18.38
-22.19
-25.42
-26.86
-25.50
-20.95
-13.71
-5.07
3.20
9.43
12.60
12.66
10.58
7.91
6.36
7.14
10.62
16.22
22.63
28.20
31.58
32.07
29.83
25.70
20.81
16.10
12.04
8.66
5.68
2.89
0.23
-2.22
-4.38
-6.26
-7.92
-9.31
-10.17
-10.05
-8.62
-5.88
-2.28
1.38
4.29
5.97
6.41
5.90
4.77
3.20
1.17
-1.34
-4.16
-6.91
-9.11
-10.39
-10.64
-9.94
-8.44
-6.31
-3.72
-0.98
1.43
2.99
3.38
2.66
1.32
0.04
-0.52
-0.02
1.59
4.13
7.31
10.76
14.03
16.60
17.90
17.60
15.68
12.58
8.96
5.52
2.72
0.70
-0.71
-1.74
-2.59
-3.30
-3.85
-4.17
-4.26
-4.22
-4.14
-4.14
-4.27
-4.54
-4.97
-5.54
-6.22
-6.94
-7.61
-8.20
-8.68
-9.03
-9.19
-9.07
-8.54
-7.54
-6.15
-4.62
-3.20
-2.13
-1.49
-1.26
-1.30
-1.42
-1.43
-1.17
-0.56
0.32
1.23
1.86
1.90
1.18
-0.26
-2.19
-4.28
-6.11
-7.30
-7.54
-6.69
-4.93
-2.82
-1.14
-0.63
-1.59
-3.68
-5.98
-7.43
-7.27
-5.35
-2.21
1.25
4.17
6.06
6.94
7.14
7.09
7.01
6.90
6.57
5.80
4.56
3.11
1.92
1.51
2.20
3.96
6.37
8.81
10.60
11.31
10.75
9.04
6.46
3.34
0.06
-2.91
-4.95
-5.41
-3.75
0.07
5.40
11.00
15.39
17.48
16.97
14.48
11.13
8.02
5.74
4.20
2.92
1.41
-0.56
-2.88
-5.30
-7.63
-9.80
-11.80
-13.62
-15.13
-16.19
-16.65
-16.48
-15.73
-14.43
-12.62
-10.35
-7.77
-5.16
-2.89
-1.30
-0.55
-0.54
-0.93
-1.28
-1.20
-0.45
0.95
2.80
4.68
6.17
6.88
6.60
5.36
3.48
1.44
-0.23
-1.14
-1.17
-0.48
0.56
1.51
2.06
2.03
1.45
0.38
-1.04
-2.73
-4.52
-6.19
-7.44
-7.95
-7.56
-6.40
-4.84
-3.39
-2.48
-2.35
-2.96
-4.03
-5.07
-5.55
-5.00
-3.22
-0.38
2.93
5.95
8.01
8.82
8.60
7.85
7.05
6.38
5.73
4.86
3.70
2.47
1.55
1.21
1.46
2.01
2.49
2.68
2.60
2.54
2.81
3.62
4.95
6.52
7.90
8.63
8.41
7.20
5.31
3.29
1.76
1.12
1.36
2.08
2.64
2.42
1.04
-1.45
-4.68
-8.06
-11.04
-13.19
-14.36
-14.67
-14.46
-14.23
-14.41
-15.14
-16.15
-16.75
-16.17
-13.86
-9.85
-4.71
0.66
5.34
8.82
10.98
12.09
12.50
12.50
12.18
11.53
10.53
9.28
7.94
6.76
5.88
5.32
4.93
4.48
3.76
2.69
1.39
0.11
-0.88
-1.43
-1.52
-1.38
-1.30
-1.57
-2.30
-3.36
-4.42
-5.10
-5.12
-4.48
-3.43
-2.33
-1.46
-0.92
-0.72
-0.85
-1.41
-2.55
-4.33
-6.60
-8.99
-10.97
-11.96
-11.51
-9.30
-5.27
0.37
7.08
14.00
20.12
24.54
26.73
26.66
24.75
21.61
17.84
13.83
9.85
6.09
2.78
0.15
-1.67
-2.72
-3.24
-3.57
-3.99
-4.63
-5.37
-5.94
-6.04
-5.50
-4.37
-2.89
-1.44
-0.33
0.23
0.25
-0.13
-0.68
-1.19
-1.54
-1.70
-1.68
-1.52
-1.28
-1.03
-0.85
-0.84
-1.08
-1.58
-2.34
-3.28
-4.27
-5.16
-5.76
-5.94
-5.64
-4.90
-3.97
-3.22
-3.11
-4.10
-6.45
-10.21
-15.16
-20.88
-26.80
-32.35
-37.02
-40.47
-42.65
-43.81
-44.51
-45.42
-47.12
-49.86
-53.41
-57.13
-60.23
-62.06
-62.53
-62.11
-61.77
-62.57
-65.32
-70.18
-76.66
-83.86
-90.89
-97.29
-103.17
-109.10
-115.79
-123.92
-134.05
-146.55
-161.40
-177.86
-194.14
-207.47
-214.77
-213.61
-203.14
-184.43
-160.02
-133.00
-105.87
-80.05
-55.85
-32.84
-10.34
12.53
36.98
64.60
97.09
135.30
178.14
222.10
261.85
291.86
308.60
311.93
305.12
293.28
281.13
271.28
263.75
256.92
249.14
239.93
230.35
222.35
217.76
217.47
221.13
227.35
234.12
239.30
241.08
238.10
229.60
215.36
195.56
170.71
141.47
108.47
72.07
32.36
-10.41
-55.22
-99.70
-140.16
-172.39
-193.06
-201.10
-198.13
-187.98
-175.21
-163.58
-154.80
-148.25
-141.62
-132.26
-118.47
-100.35
-79.82
-59.70
-42.39
-28.93
-18.66
-9.92
-1.14
8.28
18.04
27.39
35.84
43.05
48.42
50.58
47.59
38.01
21.99
1.87
-18.57
-35.57
-46.81
-52.09
-52.79
-50.77
-47.39
-43.24
-38.49
-33.41
-28.59
-24.71
-22.06
-20.33
-18.67
-16.07
-11.73
-5.29
3.04
12.61
22.37
31.15
37.98
42.39
44.69
45.85
47.22
49.85
54.19
59.88
66.06
71.71
76.09
79.01
80.96
83.04
86.77
93.50
103.62
115.86
127.05
132.71
128.26
110.66
79.69
38.32
-7.81
-51.98
-88.18
-112.65
-124.53
-125.66
-119.55
-110.24
-101.24
-94.93
-92.36
-93.25
-96.06
-98.43
-97.85
-92.47
-81.85
-67.29
-51.36
-37.01
-26.50
-20.91
-19.99
-22.56
-27.03
-31.82
-35.66
-37.73
-37.84
-36.33
-33.98
-31.69
-30.19
-29.79
-30.32
-31.33
-32.19
-32.42
-31.81
-30.52
-28.97
-27.65
-26.88
-26.66
-26.62
-26.22
-25.05
-22.99
-20.36
-17.78
-15.93
-15.33
-16.10
-17.99
-20.47
-22.93
-24.90
-26.16
-26.81
-27.04
-27.01
-26.61
-25.42
-22.90
-18.77
-13.48
-8.35
-5.29
-6.14
-11.86
-21.97
-34.70
-47.70
-58.93
-67.54
-73.94
-79.56
-86.18
-95.57
-109.20
-128.01
-152.02
-179.79
-208.24
-232.99
-249.41
-253.96
-245.37
-224.90
-195.77
-162.05
-127.59
-95.20
-66.38
-41.27
-18.43
4.99
32.81
68.62
113.99
167.03
221.54
268.08
296.64
300.46
279.38
241.12
199.67
170.96
167.46
193.72
244.83
308.18
368.01
410.44
427.25
417.14
384.69
338.18
287.05
239.70
201.94
176.06
160.34
150.05
139.40
123.84
102.02
75.89
49.22
25.34
5.44
-11.64
-28.03
-45.19
-63.07
-80.47
-96.21
-110.16
-123.21
-136.46
-150.07
-162.74
-172.10
-175.92
-173.28
-165.07
-153.64
-141.86
-132.08
-125.30
-120.98
-117.47
-112.84
-105.68
-95.68
-83.80
-71.91
-62.19
-56.36
-55.03
-57.50
-62.01
-66.25
-68.15
-66.56
-61.94
-56.66
-54.70
-60.58
-77.89
-107.68
-147.49
-191.69
-233.00
-264.72
-282.79
-286.74
-279.22
-264.46
-246.47
-227.70
-208.82
-189.17
-167.84
-144.43
-119.36
-93.44
-67.35
-40.96
-13.15
17.73
53.28
94.82
143.44
199.95
264.30
334.45
405.59
470.28
520.27
549.31
555.39
541.37
513.52
478.68
441.85
405.24
369.05
332.95
297.25
262.84
230.31
199.13
167.51
133.09
93.92
49.32
0.25
-50.46
-98.68
-139.80
-169.90
-187.05
-191.97
-187.71
-178.41
-167.72
-157.54
-147.98
-138.18
-127.48
-116.19
-105.49
-96.61
-90.06
-85.33
-81.26
-76.89
-72.02
-67.29
-63.82
-62.48
-63.44
-66.06
-69.29
-72.10
-73.89
-74.58
-74.34
-73.34
-71.55
-68.75
-64.77
-59.60
-53.50
-46.93
-40.41
-34.45
-29.41
-25.45
-22.46
-20.09
-17.91
-15.58
-13.09
-10.77
-9.11
-8.55
-9.18
-10.68
-12.50
-14.10
-15.14
-15.56
-15.48
-15.03
-14.29
-13.32
-12.16
-10.93
-9.84
-9.07
-8.76
-8.91
-9.38
-9.95
-10.40
-10.61
-10.56
-10.35
-10.12
-9.95
-9.83
-9.70
-9.47
-9.17
-8.93
-8.98
-9.46
-10.37
-11.55
-12.73
-13.72
-14.49
-15.16
-15.90
-16.81
-17.84
-18.84
-19.68
-20.37
-21.04
-21.81
-22.69
-23.48
-23.82
-23.32
-21.71
-18.89
-14.92
-9.89
-3.94
2.73
9.80
16.78
23.06
28.07
31.47
33.26
33.76
33.49
32.89
32.19
31.36
30.16
28.38
25.99
23.21
20.50
18.34
17.05
16.59
16.57
16.37
15.42
13.42
10.49
7.08
3.82
1.30
-0.19
-0.63
-0.25
0.59
1.58
2.47
3.10
3.40
3.34
2.95
2.28
1.43
0.51
-0.34
-0.96
-1.23
-1.06
-0.42
0.71
2.31
4.30
6.47
8.45
9.75
9.94
8.87
6.79
4.31
2.15
0.86
0.57
0.97
1.50
1.63
1.13
0.10
-1.14
-2.20
-2.88
-3.16
-3.24
-3.33
-3.57
-3.90
-4.15
-4.13
-3.77
-3.15
-2.41
-1.63
-0.78
0.18
1.13
1.66
1.14
-1.03
-5.10
-10.68
-16.82
-22.22
-25.64
-26.25
-23.79
-18.61
-11.51
-3.57
4.06
10.24
14.15
15.35
13.87
10.29
5.56
0.83
-2.83
-4.72
-4.65
-2.98
-0.52
1.79
3.14
3.07
1.58
-0.94
-3.86
-6.58
-8.66
-10.00
-10.70
-10.97
-10.92
-10.47
-9.42
-7.64
-5.26
-2.72
-0.63
0.46
0.24
-1.20
-3.51
-6.18
-8.67
-10.65
-11.95
-12.72
-13.27
-14.04
-15.35
-17.28
-19.62
-21.92
-23.50
-23.51
-20.97
-15.01
-5.37
7.12
20.42
31.73
38.41
39.11
34.35
26.37
18.14
12.23
9.91
10.89
13.73
16.46
17.32
15.31
10.42
3.71
-3.08
-8.10
-10.10
-8.89
-5.40
-1.22
2.07
3.48
2.77
0.43
-2.67
-5.45
-6.86
-6.11
-3.14
1.10
4.76
5.69
2.57
-4.18
-12.21
-18.04
-18.55
-12.51
-1.09
12.55
24.70
32.51
34.83
32.21
26.28
18.88
11.52
5.11
0.07
-3.50
-5.74
-6.91
-7.40
-7.64
-7.96
-8.45
-8.84
-8.50
-6.74
-3.15
2.01
7.71
12.47
14.80
13.88
9.93
4.21
-1.45
-5.28
-6.24
-4.35
-0.60
3.50
6.59
7.94
7.65
6.38
4.99
4.04
3.60
3.42
3.16
2.65
1.95
1.19
0.44
-0.41
-1.45
-2.65
-3.73
-4.24
-3.81
-2.39
-0.32
1.81
3.40
4.08
3.81
2.83
1.53
0.26
-0.71
-1.27
-1.40
-1.25
-1.04
-1.01
-1.37
-2.13
-3.16
-4.16
-4.90
-5.22
-5.14
-4.78
-4.32
-3.88
-3.53
-3.30
-3.20
-3.23
-3.37
-3.54
-3.62
-3.53
-3.22
-2.75
-2.21
-1.72
-1.34
-1.05
-0.85
-0.73
-0.71
-0.81
-1.02
-1.29
-1.54
-1.73
-1.84
-1.88
-1.87
-1.79
-1.63
-1.41
-1.22
-1.14
-1.24
-1.51
-1.87
-2.15
-2.23
-2.04
-1.62
-1.07
-0.53
-0.11
0.15
0.25
0.25
0.18
0.03
-0.23
-0.64
-1.18
-1.80
-2.34
-2.71
-2.84
-2.77
-2.59
-2.33
-1.98
-1.47
-0.75
0.12
1.00
1.68
1.97
1.83
1.34
0.69
0.06
-0.42
-0.72
-0.87
-0.99
-1.14
-1.38
-1.68
-1.94
-2.00
-1.69
-0.90
0.38
2.00
3.70
5.18
6.18
6.58
6.40
5.75
4.82
3.77
2.75
1.83
1.08
0.49
0.04
-0.33
-0.70
-1.10
-1.56
-2.04
-2.49
-2.89
-3.20
-3.42
-3.51
-3.45
-3.20
-2.75
-2.09
-1.28
-0.40
0.44
1.14
1.62
1.91
2.09
2.29
2.59
3.00
3.45
3.83
4.04
4.09
4.01
3.83
3.55
3.10
2.43
1.59
0.69
-0.09
-0.61
-0.81
-0.73
-0.47
-0.16
0.08
0.17
0.00
-0.45
-1.17
-2.02
-2.86
-3.54
-4.00
-4.27
-4.42
-4.51
-4.58
-4.66
-4.76
-4.95
-5.29
-5.79
-6.36
-6.83
-7.06
-6.97
-6.56
-5.83
-4.80
-3.40
-1.63
0.43
2.54
4.38
5.68
6.30
6.28
5.72
4.71
3.31
1.52
-0.56
-2.71
-4.58
-5.77
-5.99
-5.12
-3.33
-1.09
0.95
2.16
2.18
1.17
-0.25
-1.16
-0.79
1.14
4.22
7.58
10.25
11.60
11.60
10.69
9.48
8.49
7.85
7.35
6.61
5.27
3.24
0.73
-1.79
-3.83
-5.03
-5.26
-4.68
-3.56
-2.24
-0.98
0.01
0.56
0.48
-0.30
-1.74
-3.55
-5.32
-6.63
-7.23
-7.14
-6.55
-5.76
-4.99
-4.33
-3.76
-3.23
-2.69
-2.13
-1.58
-1.06
-0.57
-0.05
0.61
1.55
2.86
4.51
6.31
7.93
9.02
9.34
8.85
7.75
6.35
4.96
3.75
2.71
1.71
0.58
-0.77
-2.20
-3.45
-4.21
-4.26
-3.65
-2.65
-1.64
-0.96
-0.78
-1.04
-1.59
-2.26
-2.90
-3.34
-3.28
-2.46
-0.77
1.51
3.65
4.77
4.21
1.96
-1.25
-4.28
-6.11
-6.21
-4.76
-2.35
0.27
2.53
4.09
4.76
4.46
3.24
1.36
-0.64
-2.05
-2.19
-0.73
2.14
5.73
9.06
11.22
11.67
10.33
7.59
4.13
0.70
-2.10
-3.89
-4.52
-4.13
-2.98
-1.45
0.07
1.29
2.05
2.36
2.31
2.03
1.63
1.18
0.74
0.37
0.10
-0.06
-0.17
-0.32
-0.59
-1.00
-1.45
-1.89
-2.26
-2.60
-2.97
-3.38
-3.71
-3.80
-3.50
-2.84
-2.03
-1.32
-0.86
-0.56
-0.16
0.61
1.81
3.17
4.25
4.64
4.20
3.13
1.83
0.70
-0.05
-0.42
-0.57
-0.69
-0.96
-1.47
-2.28
-3.39
-4.67
-5.97
-7.04
-7.69
-7.80
-7.46
-6.85
-6.22
-5.79
-5.65
-5.75
-5.89
-5.87
-5.51
-4.77
-3.76
-2.69
-1.79
-1.25
-1.18
-1.56
-2.27
-3.06
-3.62
-3.69
-3.14
-2.16
-1.11
-0.44
-0.38
-0.77
-1.07
-0.61
1.06
3.89
7.22
10.05
11.35
10.45
7.37
2.82
-1.92
-5.40
-6.40
-4.46
0.01
5.76
11.14
14.65
15.39
13.38
9.43
4.80
0.77
-1.84
-2.78
-2.46
-1.59
-0.89
-0.82
-1.39
-2.25
-2.93
-3.10
-2.70
-1.99
-1.37
-1.20
-1.65
-2.60
-3.68
-4.32
-3.98
-2.37
0.32
3.39
5.82
6.63
5.27
1.86
-2.88
-7.81
-11.80
-14.01
-14.03
-11.89
-7.95
-2.78
2.98
8.71
13.83
17.80
20.14
20.41
18.43
14.39
9.01
3.37
-1.43
-4.63
-6.10
-6.22
-5.51
-4.35
-2.81
-0.85
1.37
3.39
4.56
4.37
2.78
0.27
-2.40
-4.55
-5.85
-6.36
-6.41
-6.27
-6.10
-5.93
-5.72
-5.48
-5.31
-5.33
-5.58
-5.92
-6.06
-5.68
-4.63
-3.09
-1.54
-0.50
-0.35
-1.13
-2.61
-4.47
-6.39
-8.10
-9.25
-9.37
-7.93
-4.68
0.02
5.02
8.72
9.70
7.52
3.15
-1.38
-3.77
-2.57
2.16
8.84
15.15
19.09
19.83
17.85
14.47
10.99
8.05
5.50
2.86
-0.20
-3.45
-6.18
-7.65
-7.56
-6.30
-4.82
-4.20
-5.10
-7.45
-10.47
-12.99
-13.89
-12.59
-9.23
-4.57
0.26
4.13
6.34
6.77
5.99
4.94
4.62
5.58
7.68
10.24
12.28
13.10
12.40
10.32
7.12
3.05
-1.73
-6.93
-11.98
-15.97
-17.82
-16.62
-12.01
-4.39
5.08
14.70
22.62
27.34
28.03
24.80
18.61
11.02
3.81
-1.45
-3.77
-2.88
0.64
5.59
10.50
14.13
15.87
15.90
15.02
14.10
13.66
13.57
13.20
11.81
8.96
4.75
-0.19
-4.91
-8.51
-10.44
-10.67
-9.69
-8.26
-7.11
-6.64
-6.83
-7.37
-7.88
-8.17
-8.31
-8.59
-9.33
-10.76
-12.95
-15.86
-19.41
-23.38
-27.41
-30.89
-32.99
-32.98
-30.44
-25.54
-19.02
-11.94
-5.34
0.05
3.95
6.40
7.54
7.56
6.63
5.00
3.11
1.46
0.53
0.49
1.23
2.30
3.20
3.50
2.94
1.49
-0.71
-3.34
-5.90
-7.71
-8.14
-6.82
-3.94
-0.19
3.58
6.73
9.12
11.04
12.85
14.61
15.99
16.45
15.67
13.77
11.29
8.88
6.94
5.51
4.35
3.18
1.88
0.57
-0.60
-1.46
-1.94
-2.02
-1.78
-1.37
-1.00
-0.83
-0.98
-1.38
-1.88
-2.30
-2.61
-2.88
-3.26
-3.78
-4.39
-4.91
-5.21
-5.29
-5.31
-5.56
-6.37
-7.98
-10.41
-13.35
-16.19
-18.15
-18.56
-17.08
-13.88
-9.52
-4.68
0.07
4.41
8.18
11.21
13.34
14.49
14.86
14.93
15.31
16.38
18.08
19.97
21.48
22.38
22.95
23.89
25.88
29.20
33.52
38.08
41.98
44.61
45.73
45.43
43.92
41.42
38.09
34.17
30.08
26.39
23.67
22.21
21.88
22.07
21.97
20.78
18.12
14.06
9.11
3.94
-0.92
-5.23
-9.10
-12.77
-16.48
-20.29
-24.06
-27.49
-30.26
-32.08
-32.77
-32.31
-30.83
-28.69
-26.29
-24.03
-22.12
-20.58
-19.27
-18.03
-16.84
-15.77
-14.95
-14.47
-14.36
-14.62
-15.25
-16.26
-17.56
-18.94
-20.10
-20.76
-20.85
-20.58
-20.33
-20.50
-21.26
-22.41
-23.53
-24.16
-24.07
-23.44
-22.81
-22.83
-23.94
-26.06
-28.64
-30.83
-31.84
-31.21
-28.92
-25.36
-21.24
-17.42
-14.81
-14.07
-15.44
-18.43
-21.86
-24.23
-24.29
-21.75
-17.52
-13.43
-11.41
-12.70
-17.27
-24.02
-31.36
-38.03
-43.61
-48.55
-53.77
-60.08
-67.75
-76.52
-85.77
-94.77
-102.95
-109.87
-115.40
-119.81
-123.82
-128.43
-134.37
-141.39
-147.88
-151.07
-147.98
-136.53
-116.48
-89.41
-58.14
-25.53
6.43
37.05
66.88
97.39
130.53
168.21
211.55
260.08
311.15
360.06
400.92
428.23
438.52
431.26
408.81
375.40
335.81
294.05
252.68
212.73
173.83
134.75
94.10
51.27
7.09
-35.84
-73.73
-102.86
-120.91
-127.85
-125.90
-118.59
-109.36
-100.59
-93.27
-87.42
-82.71
-78.90
-75.82
-73.16
-70.33
-66.61
-61.50
-55.08
-48.06
-41.46
-36.09
-32.03
-28.52
-24.17
-17.66
-8.29
3.66
17.04
30.37
42.47
53.08
62.88
73.28
86.01
102.60
123.96
150.06
179.75
210.75
240.08
264.79
282.87
293.80
298.58
299.10
297.21
294.04
289.73
283.75
275.40
264.25
250.20
233.42
214.17
192.80
169.85
146.14
122.52
99.66
77.83
56.75
35.79
14.35
-7.87
-30.74
-53.74
-76.21
-97.75
-118.33
-138.43
-158.99
-181.34
-206.80
-236.08
-268.46
-301.33
-330.49
-351.22
-360.01
-355.88
-340.76
-318.66
-294.04
-270.28
-248.94
-230.03
-212.89
-197.01
-182.31
-168.97
-156.97
-145.91
-135.15
-124.14
-112.73
-101.22
-90.26
-80.49
-72.25
-65.45
-59.63
-54.14
-48.47
-42.47
-36.36
-30.65
-25.82
-22.12
-19.50
-17.58
-15.87
-13.96
-11.68
-9.11
-6.56
-4.36
-2.73
-1.71
-1.14
-0.75
-0.35
0.14
0.65
1.02
1.12
0.97
0.65
0.31
0.04
-0.18
-0.37
-0.54
-0.62
-0.52
-0.23
0.14
0.40
0.35
-0.08
-0.82
-1.66
-2.40
-2.90
-3.10
-2.98
-2.55
-1.83
-0.90
0.06
0.82
1.20
1.13
0.71
0.18
-0.25
-0.46
-0.47
-0.42
-0.42
-0.56
-0.82
-1.13
-1.41
-1.65
-1.88
-2.15
-2.51
-3.02
-3.70
-4.55
-5.56
-6.69
-7.84
-8.91
-9.82
-10.55
-11.13
-11.65
-12.21
-12.93
-13.92
-15.22
-16.82
-18.67
-20.67
-22.73
-24.79
-26.86
-29.01
-31.33
-33.91
-36.77
-39.85
-43.05
-46.23
-49.35
-52.47
-55.79
-59.56
-64.02
-69.30
-75.39
-82.14
-89.23
-96.24
-102.82
-108.88
-114.96
-122.18
-131.89
-144.77
-159.89
-174.36
-183.95
-184.58
-174.07
-153.26
-125.69
-96.12
-68.55
-44.74
-23.85
-3.37
19.54
47.05
80.37
119.86
164.95
213.69
262.34
305.65
338.36
357.40
363.45
361.05
356.47
354.62
356.59
359.35
357.74
347.42
327.13
298.97
266.65
233.33
200.03
165.65
128.14
85.96
39.17
-10.23
-58.80
-102.60
-138.18
-163.38
-177.71
-182.23
-178.93
-169.96
-157.20
-142.18
-126.39
-111.44
-99.04
-90.38
-85.66
-83.87
-83.13
-81.54
-77.96
-72.35
-65.62
-59.08
-53.78
-50.15
-47.90
-46.30
-44.55
-42.09
-38.75
-34.74
-30.48
-26.41
-22.83
-19.83
-17.30
-15.03
-12.79
-10.49
-8.16
-6.02
-4.33
-3.25
-2.80
-2.78
-2.88
-2.78
-2.32
-1.52
-0.57
0.28
0.84
1.03
0.88
0.48
-0.05
-0.61
-1.14
-1.59
-1.94
-2.17
-2.32
-2.44
-2.56
-2.76
-3.04
-3.37
-3.66
-3.82
-3.78
-3.54
-3.15
-2.70
-2.27
-1.84
-1.37
-0.80
-0.15
0.44
0.76
0.64
0.09
-0.71
-1.47
-1.96
-2.08
-1.94
-1.69
-1.44
-1.23
-0.99
-0.68
-0.33
-0.07
0.00
-0.12
-0.33
-0.45
-0.31
0.13
0.75
1.33
1.65
1.60
1.17
0.53
-0.10
-0.53
-0.66
-0.50
-0.17
0.20
0.53
0.80
1.03
1.24
1.40
1.43
1.24
0.82
0.28
-0.25
-0.64
-0.81
-0.78
-0.62
-0.43
-0.24
-0.09
0.02
0.04
-0.06
-0.29
-0.55
-0.74
-0.76
-0.60
-0.33
-0.03
0.23
0.42
0.57
0.70
0.76
0.70
0.46
